Wavenumber (cm-1),Int deg0 (arb),Int deg2 (arb),Int deg4 (arb),Int deg6 (arb),Int deg8 (arb),Int deg10 (arb),Int deg12 (arb),Int deg14 (arb),Int deg16 (arb),Int deg18 (arb),Int deg20 (arb),Int deg22 (arb),Int deg24 (arb),Int deg26 (arb),Int deg28 (arb)
499.955,0.154694,0.0951905,-1.17549e-38,-1.17549e-38,-1.17549e-38,0.0532914,-1.17549e-38,0.0198436,-1.17549e-38,0.0738792,0.00678712,0.0793255,-1.17549e-38,0.0440793,0.010669
500.4372,0.108258,0.0432849,-1.17549e-38,-1.17549e-38,-1.17549e-38,0.110893,-1.17549e-38,0.0221276,-1.17549e-38,0.0447092,-1.17549e-38,0.0441972,-1.17549e-38,0.0750542,0.00594971
500.9193,0.0456384,-1.17549e-38,0.00189115,-1.17549e-38,-1.17549e-38,0.132781,-1.17549e-38,0.0256059,-1.17549e-38,0.0144723,-1.17549e-38,0.0112222,-1.17549e-38,0.0865331,0.00669777
501.4014,-1.17549e-38,-1.17549e-38,0.0356692,-1.17549e-38,-1.17549e-38,0.115868,-1.17549e-38,0.0304393,-1.17549e-38,-1.17549e-38,-1.17549e-38,-1.17549e-38,-1.17549e-38,0.0708331,0.0127072
501.8835,-1.17549e-38,-1.17549e-38,0.0678595,-1.17549e-38,0.0204854,0.0741358,-1.17549e-38,0.0337288,0.00209469,-1.17549e-38,-1.17549e-38,-1.17549e-38,-1.17549e-38,0.0291153,0.020878
502.3656,-1.17549e-38,-1.17549e-38,0.0764364,-1.17549e-38,0.0164316,0.0322303,-1.17549e-38,0.0300362,0.0354647,-1.17549e-38,-1.17549e-38,0.00650107,0.0245089,-1.17549e-38,0.0262506
502.8477,-1.17549e-38,-1.17549e-38,0.0491711,0.00658506,-1.17549e-38,0.0120315,-1.17549e-38,0.0149119,0.0656945,-1.17549e-38,-1.17549e-38,0.01792,0.0527359,-1.17549e-38,0.024849
503.3299,-1.17549e-38,-1.17549e-38,-1.17549e-38,0.0196113,-1.17549e-38,0.020748,0.00225754,-1.17549e-38,0.0890432,-1.17549e-38,-1.17549e-38,0.017798,0.0683449,-1.17549e-38,0.0162241
503.812,-1.17549e-38,-1.17549e-38,-1.17549e-38,0.0274679,-1.17549e-38,0.0493956,0.01375,-1.17549e-38,0.106601,0.0132285,-1.17549e-38,0.00430443,0.0715251,-1.17549e-38,0.00341211
504.2941,0.00442957,0.040942,-1.17549e-38,0.0241232,-1.17549e-38,0.0804536,0.0198276,-1.17549e-38,0.12069,0.0244486,-1.17549e-38,-1.17549e-38,0.0664547,-1.17549e-38,-1.17549e-38
504.7762,0.0141224,0.0713702,-1.17549e-38,0.00812196,-1.17549e-38,0.0974413,0.0208577,-1.17549e-38,0.130894,0.0333682,-1.17549e-38,-1.17549e-38,0.0590804,-1.17549e-38,-1.17549e-38
505.2583,0.0252578,0.0817379,-1.17549e-38,-1.17549e-38,-1.17549e-38,0.0921373,0.0163934,-1.17549e-38,0.132527,0.041217,-1.17549e-38,-1.17549e-38,0.0542011,-1.17549e-38,-1.17549e-38
505.7404,0.0374923,0.0695875,-1.17549e-38,-1.17549e-38,-1.17549e-38,0.0683409,0.00599379,-1.17549e-38,0.118695,0.0455428,-1.17549e-38,-1.17549e-38,0.0527753,-1.17549e-38,-1.17549e-38
506.2226,0.04708,0.0382198,-1.17549e-38,-1.17549e-38,0.00364383,0.0405669,-1.17549e-38,-1.17549e-38,0.0856048,0.039627,-1.17549e-38,-1.17549e-38,0.0509948,-1.17549e-38,-1.17549e-38
506.7047,0.0498742,-1.17549e-38,0.0181383,-1.17549e-38,0.00954191,0.0261394,-1.17549e-38,-1.17549e-38,0.0381749,0.016397,0.00169204,-1.17549e-38,0.0426898,-1.17549e-38,-1.17549e-38
507.1868,0.0451827,-1.17549e-38,0.0486088,-1.17549e-38,0.017669,0.0338502,-1.17549e-38,-1.17549e-38,-1.17549e-38,-1.17549e-38,0.0249653,-1.17549e-38,0.0243191,-1.17549e-38,-1.17549e-38
507.6689,0.0370888,-1.17549e-38,0.0586377,0.0230779,0.0299269,0.0576992,-1.17549e-38,-1.17549e-38,-1.17549e-38,-1.17549e-38,0.0447214,0.00822378,-1.17549e-38,-1.17549e-38,0.000789359
508.151,0.0318539,-1.17549e-38,0.0475106,0.0701463,0.0401719,0.0812808,-1.17549e-38,-1.17549e-38,-1.17549e-38,-1.17549e-38,0.0542874,0.015009,-1.17549e-38,-1.17549e-38,-1.17549e-38
508.6331,0.0336155,-1.17549e-38,0.0167679,0.112997,0.0396257,0.0886061,-1.17549e-38,-1.17549e-38,-1.17549e-38,-1.17549e-38,0.0517637,0.0143273,-1.17549e-38,-1.17549e-38,-1.17549e-38
509.1153,0.0416067,-1.17549e-38,-1.17549e-38,0.143582,0.0243892,0.0727696,-1.17549e-38,0.0212191,0.0129469,-1.17549e-38,0.0403263,0.011883,-1.17549e-38,-1.17549e-38,-1.17549e-38
509.5974,0.0503478,-1.17549e-38,-1.17549e-38,0.155228,-1.17549e-38,0.038169,0.00893008,0.0619183,0.0371126,-1.17549e-38,0.0255813,0.0132822,-1.17549e-38,-1.17549e-38,-1.17549e-38
510.0795,0.052485,-1.17549e-38,-1.17549e-38,0.143143,-1.17549e-38,-1.17549e-38,0.0219943,0.0983483,0.0368181,-1.17549e-38,0.0120036,0.0199534,-1.17549e-38,-1.17549e-38,-1.17549e-38
510.5616,0.042945,-1.17549e-38,-1.17549e-38,0.106659,-1.17549e-38,-1.17549e-38,0.0281861,0.116526,0.00737452,0.0146212,0.000825807,0.0277299,-1.17549e-38,0.016914,-1.17549e-38
511.0437,0.0221994,-1.17549e-38,-1.17549e-38,0.0519318,-1.17549e-38,-1.17549e-38,0.0257849,0.108947,-1.17549e-38,0.0787649,-1.17549e-38,0.0295672,-1.17549e-38,0.0387387,-1.17549e-38
511.5258,-1.17549e-38,-1.17549e-38,-1.17549e-38,-1.17549e-38,-1.17549e-38,-1.17549e-38,0.0162519,0.078407,-1.17549e-38,0.128153,-1.17549e-38,0.0208639,-1.17549e-38,0.0532153,-1.17549e-38
512.008,-1.17549e-38,0.00130977,-1.17549e-38,-1.17549e-38,-1.17549e-38,-1.17549e-38,0.00431879,0.0368561,-1.17549e-38,0.156095,-1.17549e-38,0.00330028,-1.17549e-38,0.0612602,-1.17549e-38
512.4901,-1.17549e-38,0.0114879,-1.17549e-38,-1.17549e-38,-1.17549e-38,0.0280241,-1.17549e-38,0.000218369,-1.17549e-38,0.160841,-1.17549e-38,-1.17549e-38,-1.17549e-38,0.0649232,-1.17549e-38
512.9722,-1.17549e-38,0.0162842,0.0168212,-1.17549e-38,0.00224039,0.0644967,-1.17549e-38,-1.17549e-38,-1.17549e-38,0.144828,-1.17549e-38,-1.17549e-38,-1.17549e-38,0.0635684,-1.17549e-38
513.4543,-1.17549e-38,0.0137174,0.0537408,-1.17549e-38,0.0103924,0.0878872,0.00563536,-1.17549e-38,0.0135504,0.113613,-1.17549e-38,-1.17549e-38,-1.17549e-38,0.0533751,-1.17549e-38
513.9365,0.0108557,0.00391577,0.0713549,0.0164535,0.0280654,0.0923242,0.0209507,0.0112206,0.0560301,0.0743733,0.00529873,-1.17549e-38,-1.17549e-38,0.030965,-1.17549e-38
514.4186,0.0358871,-1.17549e-38,0.0657747,0.056308,0.0567551,0.0792846,0.0371521,0.041361,0.0601995,0.0338994,0.0186329,-1.17549e-38,-1.17549e-38,-1.17549e-38,-1.17549e-38
514.9007,0.054551,-1.17549e-38,0.0395525,0.0772781,0.0909888,0.0564476,0.0499244,0.0625192,0.0247986,-1.17549e-38,0.0294747,-1.17549e-38,-1.17549e-38,-1.17549e-38,-1.17549e-38
515.3828,0.0613459,-1.17549e-38,0.00280849,0.0767662,0.120714,0.0336641,0.0571539,0.0636243,-1.17549e-38,-1.17549e-38,0.0410224,-1.17549e-38,-1.17549e-38,-1.17549e-38,-1.17549e-38
515.8649,0.0532063,-1.17549e-38,-1.17549e-38,0.0608718,0.136008,0.0183075,0.0586594,0.0419395,-1.17549e-38,-1.17549e-38,0.0571413,-1.17549e-38,-1.17549e-38,-1.17549e-38,-1.17549e-38
516.347,0.0315044,0.00859482,-1.17549e-38,0.0403227,0.131797,0.012144,0.0552795,0.00451156,-1.17549e-38,-1.17549e-38,0.0778124,-1.17549e-38,0.0154163,-1.17549e-38,-1.17549e-38
516.8292,0.00363817,0.0360093,-1.17549e-38,0.0251114,0.110602,0.0111364,0.0484673,-1.17549e-38,-1.17549e-38,-1.17549e-38,0.096803,-1.17549e-38,0.0358798,-1.17549e-38,-1.17549e-38
517.3113,-1.17549e-38,0.0610219,0.00412874,0.0201624,0.0815003,0.00859831,0.0404888,-1.17549e-38,0.0524904,-1.17549e-38,0.104315,0.0380751,0.0430838,-1.17549e-38,-1.17549e-38
517.7934,-1.17549e-38,0.0755817,0.0396091,0.0242656,0.0554822,1.54132e-05,0.0342822,-1.17549e-38,0.124847,-1.17549e-38,0.0934265,0.0756073,0.0366974,-1.17549e-38,-1.17549e-38
518.2755,-1.17549e-38,0.0749121,0.0622707,0.0323506,0.040245,-1.17549e-38,0.0322675,-1.17549e-38,0.166458,-1.17549e-38,0.0652596,0.0963715,0.0240621,-1.17549e-38,-1.17549e-38
518.7576,0.0133215,0.0589949,0.0637322,0.0386187,0.0375494,-1.17549e-38,0.0346884,-1.17549e-38,0.170153,-1.17549e-38,0.0290068,0.0922338,0.0153289,-1.17549e-38,-1.17549e-38
519.2397,0.0383172,0.0323904,0.0454798,0.038381,0.0434108,-1.17549e-38,0.0389104,0.0092854,0.146437,-1.17549e-38,-1.17549e-38,0.0654053,0.0177696,-1.17549e-38,-1.17549e-38
519.7219,0.0516282,0.00245469,0.0164271,0.0287,0.0498797,-1.17549e-38,0.0406916,0.0229251,0.112341,0.0183791,-1.17549e-38,0.0266396,0.0325332,-1.17549e-38,-1.17549e-38
520.204,0.0493123,-1.17549e-38,-1.17549e-38,0.00895733,0.047856,0.00118034,0.0370095,0.0227222,0.0798668,0.0281717,-1.17549e-38,-1.17549e-38,0.0549285,0.0342751,-1.17549e-38
520.6861,0.0364521,-1.17549e-38,-1.17549e-38,-1.17549e-38,0.0307663,0.0311465,0.0284093,0.0129955,0.0510188,0.0235793,-1.17549e-38,-1.17549e-38,0.0773918,0.0714361,0.00147403
521.1682,0.0228492,-1.17549e-38,-1.17549e-38,-1.17549e-38,-1.17549e-38,0.0580408,0.0187672,0.00032971,0.0209402,0.0104378,0.000721883,-1.17549e-38,0.0929182,0.0876173,0.00407437
521.6503,0.0165927,-1.17549e-38,-1.17549e-38,-1.17549e-38,-1.17549e-38,0.0725454,0.012471,-1.17549e-38,-1.17549e-38,-1.17549e-38,0.00611832,-1.17549e-38,0.0970413,0.0828276,0.00326476
522.1324,0.0203171,-1.17549e-38,-1.17549e-38,-1.17549e-38,-1.17549e-38,0.0696586,0.0111779,-1.17549e-38,-1.17549e-38,-1.17549e-38,0.00395858,-1.17549e-38,0.0882883,0.0673119,-1.17549e-38
522.6146,0.0319898,-1.17549e-38,0.00507322,-1.17549e-38,-1.17549e-38,0.0502854,0.0125886,-1.17549e-38,-1.17549e-38,0.00488284,-1.17549e-38,-1.17549e-38,0.0681549,0.05477,-1.17549e-38
523.0967,0.0484192,-1.17549e-38,0.00920843,-1.17549e-38,-1.17549e-38,0.0204996,0.012214,-1.17549e-38,-1.17549e-38,0.0231823,-1.17549e-38,-1.17549e-38,0.0410176,0.0539679,-1.17549e-38
523.5788,0.0679214,-1.17549e-38,0.00611341,-1.17549e-38,-1.17549e-38,-1.17549e-38,0.00689807,-1.17549e-38,-1.17549e-38,0.0417205,0.0022891,-1.17549e-38,0.013407,0.0638407,-1.17549e-38
524.0609,0.0897263,-1.17549e-38,0.00256369,0.0135808,0.0296128,-1.17549e-38,-1.17549e-38,-1.17549e-38,-1.17549e-38,0.0515598,0.0140027,0.00773248,-1.17549e-38,0.0750864,-1.17549e-38
524.543,0.110917,-1.17549e-38,0.00636765,0.0325263,0.0876901,-1.17549e-38,-1.17549e-38,-1.17549e-38,-1.17549e-38,0.0478517,0.0263171,0.0378554,-1.17549e-38,0.0768572,-1.17549e-38
525.0251,0.124328,-1.17549e-38,0.0201285,0.0397687,0.125607,-1.17549e-38,-1.17549e-38,-1.17549e-38,-1.17549e-38,0.0326977,0.0332522,0.0613692,-1.17549e-38,0.064267,-1.17549e-38
525.5073,0.120872,-1.17549e-38,0.037393,0.0379348,0.134561,-1.17549e-38,-1.17549e-38,0.00130199,0.0472177,0.0151909,0.0326351,0.0691736,-1.17549e-38,0.0423076,0.0126496
525.9894,0.0964717,-1.17549e-38,0.0450361,0.0323029,0.117418,0.00693094,0.00225891,0.0164585,0.0855133,0.0073464,0.0277607,0.0576801,0.00550728,0.022968,0.0419875
526.4715,0.0578889,-1.17549e-38,0.0320804,0.0275734,0.0855651,0.0431908,0.0141309,0.0114308,0.0969364,0.0165995,0.0246418,0.0310902,0.0126173,0.0162863,0.0663745
526.9536,0.0202503,-1.17549e-38,-1.17549e-38,0.0256347,0.0509856,0.0779157,0.0209115,-1.17549e-38,0.0850489,0.0399318,0.0268627,-1.17549e-38,0.0149309,0.0224368,0.0814147
527.4357,-1.17549e-38,0.00218245,-1.17549e-38,0.0256713,0.0202299,0.106431,0.0211202,-1.17549e-38,0.062065,0.0647382,0.0328949,-1.17549e-38,0.0157447,0.0321029,0.0861261
527.9178,-1.17549e-38,-1.17549e-38,-1.17549e-38,0.0257102,-1.17549e-38,0.125547,0.0168035,-1.17549e-38,0.0397673,0.075482,0.0379058,-1.17549e-38,0.018846,0.0338325,0.0815384
528.4,0.000721318,-1.17549e-38,-1.17549e-38,0.0239371,-1.17549e-38,0.131993,0.0110777,-1.17549e-38,0.0228535,0.0614382,0.0376127,-1.17549e-38,0.02555,0.0215154,0.0691829
528.8821,0.00932638,-1.17549e-38,-1.17549e-38,0.0193008,-1.17549e-38,0.121958,0.00602128,-1.17549e-38,0.00835206,0.0221906,0.03106,-1.17549e-38,0.0341669,-1.17549e-38,0.0508603
529.3642,0.0107792,-1.17549e-38,-1.17549e-38,0.0118458,-1.17549e-38,0.0929254,0.00207612,-1.17549e-38,-1.17549e-38,-1.17549e-38,0.0209422,-1.17549e-38,0.0416283,-1.17549e-38,0.0293496
529.8463,0.00606907,-1.17549e-38,0.0190939,0.00299307,-1.17549e-38,0.0468214,-1.17549e-38,0.000198009,-1.17549e-38,-1.17549e-38,0.0117213,-1.17549e-38,0.0457353,-1.17549e-38,0.00884754
530.3284,0.00408486,-1.17549e-38,0.0711344,-1.17549e-38,-1.17549e-38,-1.17549e-38,-1.17549e-38,0.0241927,-1.17549e-38,-1.17549e-38,0.00699455,-1.17549e-38,0.0461617,-1.17549e-38,-1.17549e-38
530.8105,0.0144148,-1.17549e-38,0.102868,-1.17549e-38,-1.17549e-38,-1.17549e-38,-1.17549e-38,0.0370249,-1.17549e-38,-1.17549e-38,0.00788668,-1.17549e-38,0.0434802,-1.17549e-38,-1.17549e-38
531.2927,0.0395931,-1.17549e-38,0.106701,-1.17549e-38,-1.17549e-38,-1.17549e-38,-1.17549e-38,0.0379944,-1.17549e-38,-1.17549e-38,0.013091,-1.17549e-38,0.0374853,-1.17549e-38,-1.17549e-38
531.7748,0.0726886,0.0206751,0.0869054,7.01599e-05,-1.17549e-38,-1.17549e-38,-1.17549e-38,0.0299116,-1.17549e-38,-1.17549e-38,0.0197659,-1.17549e-38,0.0268776,-1.17549e-38,0.0113998
532.2569,0.101603,0.036541,0.0569595,0.00687566,-1.17549e-38,-1.17549e-38,-1.17549e-38,0.0172193,-1.17549e-38,-1.17549e-38,0.0243894,-1.17549e-38,0.0109891,-1.17549e-38,0.0311396
532.739,0.116529,0.0432336,0.031919,0.00993774,-1.17549e-38,-1.17549e-38,-1.17549e-38,0.00444562,-1.17549e-38,0.0258818,0.0235786,-1.17549e-38,-1.17549e-38,0.0177958,0.048582
533.2211,0.115168,0.0388296,0.0198574,0.00693859,-1.17549e-38,-1.17549e-38,-1.17549e-38,-1.17549e-38,-1.17549e-38,0.051807,0.0153196,8.14251e-05,-1.17549e-38,0.0488512,0.0573952
533.7032,0.102462,0.0218455,0.0179034,-1.17549e-38,-1.17549e-38,-1.17549e-38,-1.17549e-38,-1.17549e-38,-1.17549e-38,0.0678827,0.000414057,0.0199771,-1.17549e-38,0.0837455,0.0532115
534.1854,0.0859771,-1.17549e-38,0.0157417,-1.17549e-38,-1.17549e-38,-1.17549e-38,-1.17549e-38,-1.17549e-38,-1.17549e-38,0.0725675,-1.17549e-38,0.0417604,-1.17549e-38,0.113184,0.0350655
534.6675,0.0710117,-1.17549e-38,0.00404435,-1.17549e-38,0.00198781,-1.17549e-38,0.00521036,0.00812863,-1.17549e-38,0.065077,-1.17549e-38,0.05793,-1.17549e-38,0.12496,0.00622237
535.1496,0.0588282,-1.17549e-38,-1.17549e-38,-1.17549e-38,0.0374733,-1.17549e-38,0.0109481,0.0238591,-1.17549e-38,0.04748,-1.17549e-38,0.0634995,-1.17549e-38,0.110362,-1.17549e-38
535.6317,0.0482733,-1.17549e-38,-1.17549e-38,-1.17549e-38,0.0580926,-1.17549e-38,0.0106687,0.0393973,-1.17549e-38,0.025591,-1.17549e-38,0.0579473,-1.17549e-38,0.0706578,-1.17549e-38
536.1138,0.0384192,-1.17549e-38,-1.17549e-38,0.00739824,0.0569902,-1.17549e-38,0.00360131,0.0493258,-1.17549e-38,0.00702995,-1.17549e-38,0.044428,-1.17549e-38,0.0193731,-1.17549e-38
536.5959,0.0296131,-1.17549e-38,-1.17549e-38,0.0149036,0.0357843,-1.17549e-38,-1.17549e-38,0.0497844,-1.17549e-38,-1.17549e-38,0.00485354,0.0273432,-1.17549e-38,-1.17549e-38,-1.17549e-38
537.0781,0.0222911,0.0311473,-1.17549e-38,0.018009,0.00372557,-1.17549e-38,-1.17549e-38,0.0408432,-1.17549e-38,-1.17549e-38,0.0187266,0.0101556,-1.17549e-38,-1.17549e-38,-1.17549e-38
537.5602,0.0151546,0.0637666,-1.17549e-38,0.0173257,-1.17549e-38,-1.17549e-38,-1.17549e-38,0.0270031,-1.17549e-38,0.00224047,0.0265934,-1.17549e-38,-1.17549e-38,-1.17549e-38,-1.17549e-38
538.0423,0.00481184,0.0767355,-1.17549e-38,0.0149085,-1.17549e-38,-1.17549e-38,-1.17549e-38,0.014921,-1.17549e-38,0.00650842,0.0289233,-1.17549e-38,0.00752542,0.028688,0.0180684
538.5244,-1.17549e-38,0.0668925,-1.17549e-38,0.0123771,-1.17549e-38,-1.17549e-38,-1.17549e-38,0.00948808,0.0125726,0.00585143,0.0278233,-1.17549e-38,0.0452999,0.0743926,0.0303027
539.0065,-1.17549e-38,0.0391005,0.0245184,0.00977727,-1.17549e-38,-1.17549e-38,-1.17549e-38,0.0108497,0.0324952,-1.17549e-38,0.0255219,-1.17549e-38,0.0758748,0.0994255,0.0312617
539.4886,-1.17549e-38,0.00374381,0.0520252,0.00583964,-1.17549e-38,-1.17549e-38,0.000810721,0.0145743,0.0362133,-1.17549e-38,0.0238668,-1.17549e-38,0.0902727,0.09157,0.0268009
539.9708,-1.17549e-38,-1.17549e-38,0.0751553,-1.17549e-38,-1.17549e-38,0.00217404,0.00921287,0.01506,0.0244295,-1.17549e-38,0.0244891,-1.17549e-38,0.0864791,0.05316,0.0241398
540.4529,-1.17549e-38,-1.17549e-38,0.0864568,-1.17549e-38,-1.17549e-38,0.0105391,0.015378,0.00984671,0.00247124,-1.17549e-38,0.0285529,-1.17549e-38,0.0683577,-1.17549e-38,0.0269814
540.935,-1.17549e-38,-1.17549e-38,0.0822775,-1.17549e-38,0.015469,0.00322019,0.0203449,0.00162746,-1.17549e-38,-1.17549e-38,0.0356508,-1.17549e-38,0.0418865,-1.17549e-38,0.0333155
541.4171,-1.17549e-38,-1.17549e-38,0.0652879,-1.17549e-38,0.0350826,-1.17549e-38,0.0261685,-1.17549e-38,-1.17549e-38,-1.17549e-38,0.0427403,-1.17549e-38,0.011945,-1.17549e-38,0.0371866
541.8992,-1.17549e-38,-1.17549e-38,0.0422419,-1.17549e-38,0.0511994,-1.17549e-38,0.0347052,-1.17549e-38,-1.17549e-38,-1.17549e-38,0.0446193,-1.17549e-38,-1.17549e-38,-1.17549e-38,0.032891
542.3813,-1.17549e-38,0.00579872,0.01909,-1.17549e-38,0.0599766,-1.17549e-38,0.0461858,0.00945889,-1.17549e-38,-1.17549e-38,0.0364724,-1.17549e-38,-1.17549e-38,-1.17549e-38,0.0185226
542.8635,0.0159699,0.0193619,-1.17549e-38,-1.17549e-38,0.059664,-1.17549e-38,0.0583775,0.0237382,-1.17549e-38,-1.17549e-38,0.0171884,0.00667297,-1.17549e-38,-1.17549e-38,-1.17549e-38
543.3456,0.0527539,0.0241501,-1.17549e-38,-1.17549e-38,0.0521097,-1.17549e-38,0.0670961,0.0359862,-1.17549e-38,-1.17549e-38,-1.17549e-38,0.02369,-1.17549e-38,-1.17549e-38,-1.17549e-38
543.8277,0.0675573,0.0207504,-1.17549e-38,-1.17549e-38,0.0423624,0.0357182,0.0681169,0.042836,-1.17549e-38,-1.17549e-38,-1.17549e-38,0.0412648,-1.17549e-38,-1.17549e-38,-1.17549e-38
544.3098,0.0566456,0.0117934,-1.17549e-38,-1.17549e-38,0.0366335,0.0747633,0.059574,0.0448781,0.0230655,-1.17549e-38,-1.17549e-38,0.0557687,-1.17549e-38,0.0116501,-1.17549e-38
544.7919,0.0257146,0.000816918,-1.17549e-38,-1.17549e-38,0.0396779,0.105987,0.0434446,0.0453474,0.0598349,-1.17549e-38,-1.17549e-38,0.0632491,-1.17549e-38,0.0560584,-1.17549e-38
545.274,-1.17549e-38,-1.17549e-38,-1.17549e-38,-1.17549e-38,0.0527174,0.121563,0.025056,0.0473449,0.0848849,0.0298484,-1.17549e-38,0.0609141,0.013604,0.086036,-1.17549e-38
545.7562,-1.17549e-38,-1.17549e-38,-1.17549e-38,-1.17549e-38,0.0727207,0.118339,0.0106244,0.0518209,0.0925961,0.0713598,-1.17549e-38,0.048578,0.0324474,0.0928434,-1.17549e-38
546.2383,-1.17549e-38,-1.17549e-38,-1.17549e-38,-1.17549e-38,0.0933896,0.0990761,0.00412787,0.0576236,0.0835614,0.0980665,0.000664495,0.0292361,0.0410622,0.0738188,-1.17549e-38
546.7204,-1.17549e-38,0.00561772,-1.17549e-38,-1.17549e-38,0.107489,0.0714386,0.00545105,0.0630981,0.0638728,0.102962,0.00852885,0.00816137,0.0418127,0.0350617,0.0216043
547.2025,-1.17549e-38,0.024993,-1.17549e-38,0.00339419,0.109443,0.0449785,0.0109346,0.0675086,0.0418882,0.0872609,0.00932465,-1.17549e-38,0.0383399,-1.17549e-38,0.0363083
547.6846,0.00788318,0.0447162,-1.17549e-38,0.0206794,0.0970503,0.0275714,0.01573,0.0710115,0.0246807,0.0586782,0.0076512,-1.17549e-38,0.032792,-1.17549e-38,0.0372895
548.1667,0.0199238,0.0581953,-1.17549e-38,0.0309954,0.0718804,0.0228344,0.0162638,0.0734749,0.01613,0.0268924,0.00836855,-1.17549e-38,0.0255708,-1.17549e-38,0.0272632
548.6489,0.0236496,0.0613189,-1.17549e-38,0.0323538,0.0387211,0.0291715,0.0115043,0.0735238,0.0169634,-1.17549e-38,0.0134383,-1.17549e-38,0.0173468,-1.17549e-38,0.0132888
549.131,0.0250323,0.0550407,0.0184942,0.0281569,0.00452951,0.0403752,0.00283246,0.068964,0.0257057,-1.17549e-38,0.020957,-1.17549e-38,0.0109504,-1.17549e-38,0.00256248
549.6131,0.0297818,0.0452366,0.035345,0.0253824,-1.17549e-38,0.0477241,-1.17549e-38,0.058592,0.0393771,-1.17549e-38,0.0265765,-1.17549e-38,0.0107585,0.0138805,-1.17549e-38
550.0952,0.0383677,0.0391915,0.0436641,0.0301018,-1.17549e-38,0.0435097,-1.17549e-38,0.0441479,0.0535847,-1.17549e-38,0.0262668,-1.17549e-38,0.0193818,0.0190053,0.000432193
550.5773,0.0454313,0.0405737,0.0445237,0.043268,-1.17549e-38,0.0251151,-1.17549e-38,0.0306687,0.062605,-1.17549e-38,0.0187874,-1.17549e-38,0.0342575,0.00205226,0.00452369
551.0594,0.0439955,0.0465508,0.040698,0.0599167,-1.17549e-38,-1.17549e-38,-1.17549e-38,0.0243378,0.0604225,-1.17549e-38,0.00651345,-1.17549e-38,0.0475851,-1.17549e-38,0.00821557
551.5416,0.0311267,0.0495941,0.0336438,0.0724385,0.00194069,-1.17549e-38,-1.17549e-38,0.028766,0.0431115,0.00814589,-1.17549e-38,-1.17549e-38,0.0505516,-1.17549e-38,0.0109905
552.0237,0.0106713,0.0429485,0.0227791,0.0754016,0.026762,-1.17549e-38,-1.17549e-38,0.0420064,0.0117728,0.0222095,-1.17549e-38,-1.17549e-38,0.0390057,-1.17549e-38,0.0133747
