"Wavelength, µm","n","k"
0.185185,1.47798,0.0000588167
0.185726,1.47696,0.0000837572
0.18627,1.47595,0.000120202
0.186817,1.47497,0.000168348
0.187368,1.47402,0.000204586
0.187921,1.47309,0.000234892
0.188478,1.47217,0.000228387
0.189039,1.47124,0.000215288
0.189602,1.47031,0.000194946
0.190169,1.46938,0.000174997
0.19074,1.46845,0.000155971
0.191314,1.46752,0.000140053
0.191891,1.46659,0.000126718
0.192472,1.46567,0.00011506
0.193056,1.46476,0.000104132
0.193644,1.46385,0.0000964341
0.194236,1.46294,0.0000892852
0.194831,1.46205,0.0000829683
0.195429,1.46116,0.0000775808
0.196032,1.46027,0.0000726256
0.196638,1.45939,0.0000688302
0.197248,1.45852,0.0000652881
0.197862,1.45766,0.0000621166
0.198479,1.4568,0.0000591849
0.199101,1.45594,0.0000563481
0.199726,1.4551,0.0000536434
0.200355,1.45425,0.0000510768
0.200989,1.45342,0.0000486168
0.201626,1.45259,0.0000461457
0.202267,1.45177,0.0000436579
0.202913,1.45095,0.0000411468
0.203562,1.45013,0.0000386075
0.204216,1.44933,0.0000360617
0.204874,1.44852,0.0000335113
0.205536,1.44773,0.0000311171
0.206203,1.44694,0.0000288335
0.206874,1.44615,0.0000267193
0.207549,1.44537,0.0000248837
0.208228,1.4446,0.0000232195
0.208912,1.44382,0.0000217672
0.209601,1.44306,0.0000204768
0.210294,1.4423,0.0000193318
0.210992,1.44155,0.0000183524
0.211694,1.4408,0.0000176019
0.212402,1.44005,0.000016931
0.213113,1.43931,0.0000163177
0.21383,1.43858,0.0000156973
0.214551,1.43785,0.0000152239
0.215278,1.43713,0.0000148515
0.216009,1.43641,0.0000145696
0.216745,1.43569,0.0000143392
0.217487,1.43498,0.0000141278
0.218233,1.43428,0.0000139602
0.218985,1.43358,0.000013867
0.219741,1.43289,0.0000137847
0.220503,1.4322,0.0000137423
0.221271,1.43151,0.000013703
0.222043,1.43083,0.0000136314
0.222821,1.43015,0.0000135585
0.223605,1.42948,0.0000134787
0.224394,1.42882,0.0000134328
0.225188,1.42815,0.0000134123
0.225989,1.4275,0.0000133574
0.226795,1.42684,0.0000133425
0.227606,1.42619,0.0000132591
0.228424,1.42555,0.0000129821
0.229248,1.42491,0.0000124781
0.230077,1.42427,0.0000118046
0.230912,1.42364,0.0000110342
0.231754,1.42301,0.0000102851
0.232602,1.42239,0.00000962609
0.233456,1.42177,0.00000897662
0.234316,1.42116,0.00000837528
0.235183,1.42054,0.00000790426
0.236056,1.41994,0.00000746228
0.236935,1.41933,0.00000705567
0.237821,1.41873,0.00000668571
0.238714,1.41814,0.00000634952
0.239614,1.41755,0.0000061037
0.24052,1.41696,0.00000580825
0.241433,1.41638,0.00000552691
0.242353,1.4158,0.00000533714
0.24328,1.41522,0.00000515393
0.244215,1.41465,0.00000499944
0.245156,1.41408,0.00000490794
0.246105,1.41352,0.00000475186
0.247061,1.41296,0.0000046383
0.248025,1.4124,0.00000461356
0.248996,1.41185,0.00000455959
0.249975,1.4113,0.00000450846
0.250961,1.41075,0.00000444055
0.251956,1.41021,0.00000437098
0.252958,1.40967,0.00000433743
0.253968,1.40913,0.00000428574
0.254987,1.4086,0.00000426668
0.256013,1.40808,0.0000041265
0.257048,1.40755,0.00000415013
0.258091,1.40703,0.00000405221
0.259143,1.40651,0.00000404917
0.260204,1.406,0.00000405154
0.261273,1.40549,0.0000039983
0.262351,1.40498,0.0000039501
0.263437,1.40448,0.00000391888
0.264533,1.40398,0.0000038657
0.265638,1.40348,0.00000387038
0.266753,1.40299,0.00000392879
0.267876,1.4025,0.00000393123
0.26901,1.40201,0.00000404269
0.270153,1.40153,0.00000404846
0.271305,1.40104,0.00000402608
0.272468,1.40057,0.0000040138
0.27364,1.40009,0.00000398295
0.274823,1.39962,0.00000401102
0.276016,1.39915,0.00000407477
0.277219,1.39869,0.00000397458
0.278433,1.39823,0.00000400666
0.279657,1.39777,0.00000390453
0.280893,1.39731,0.00000386205
0.282139,1.39686,0.00000374426
0.283396,1.39641,0.00000366044
0.284665,1.39597,0.00000351912
0.285945,1.39552,0.00000333741
0.287237,1.39508,0.00000349088
0.28854,1.39465,0.00000332119
0.289855,1.39421,0.00000317148
0.291182,1.39378,0.00000304344
0.292522,1.39335,0.00000292959
0.293874,1.39293,0.00000282035
0.295238,1.3925,0.00000271735
0.296615,1.39208,0.00000262272
0.298005,1.39167,0.00000253649
0.299408,1.39125,0.0000024589
0.300825,1.39084,0.00000238572
0.302255,1.39043,0.00000231512
0.303698,1.39003,0.00000225019
0.305156,1.38962,0.00000219351
0.306627,1.38922,0.00000214039
0.308113,1.38883,0.00000208568
0.309613,1.38843,0.00000202538
0.311128,1.38804,0.00000196554
0.312658,1.38765,0.00000191069
0.314202,1.38726,0.0000018602
0.315763,1.38688,0.00000181299
0.317338,1.3865,0.00000176954
0.31893,1.38612,0.00000175454
0.320538,1.38574,0.00000172457
0.322162,1.38537,0.00000167768
0.323802,1.385,0.00000161865
0.325459,1.38463,0.00000155432
0.327134,1.38426,0.00000148988
0.328825,1.3839,0.00000142419
0.330534,1.38354,0.00000135366
0.332262,1.38318,0.0000012714
0.334007,1.38283,0.00000117679
0.33577,1.38248,0.0000010804
0.337553,1.38212,0.00000100342
0.339354,1.38178,9.47472e-7
0.341175,1.38143,9.06255e-7
0.343015,1.38109,8.77192e-7
0.344876,1.38075,8.55322e-7
0.346756,1.38041,8.35376e-7
0.348657,1.38007,8.17544e-7
0.35058,1.37974,8.01382e-7
0.352523,1.37941,7.8554e-7
0.354488,1.37908,7.7066e-7
0.356475,1.37875,7.55108e-7
0.358485,1.37843,7.3765e-7
0.360518,1.37811,7.17786e-7
0.362573,1.37779,6.91396e-7
0.364652,1.37747,6.621e-7
0.366755,1.37716,6.30797e-7
0.368883,1.37685,5.95635e-7
0.371035,1.37654,5.62662e-7
0.373213,1.37623,5.30128e-7
0.375416,1.37592,4.98892e-7
0.377646,1.37562,4.66006e-7
0.379902,1.37532,4.23145e-7
0.382185,1.37502,3.7954e-7
0.384496,1.37472,3.32487e-7
0.386835,1.37443,2.86308e-7
0.389203,1.37414,2.45729e-7
0.3916,1.37385,2.10985e-7
0.394026,1.37356,1.82576e-7
0.396483,1.37327,1.65225e-7
0.39897,1.37299,1.52602e-7
0.401489,1.37271,1.43747e-7
0.40404,1.37243,1.38304e-7
0.406624,1.37215,1.34857e-7
0.409241,1.37188,1.3201e-7
0.411892,1.37161,1.30842e-7
0.414577,1.37134,1.47752e-7
0.417298,1.37107,1.49455e-7
0.420054,1.3708,1.59179e-7
0.422847,1.37054,1.70308e-7
0.425678,1.37028,1.3366e-7
0.428547,1.37002,1.3817e-7
0.431454,1.36976,1.49357e-7
0.434402,1.3695,1.36718e-7
0.43739,1.36925,1.60608e-7
0.440419,1.36899,1.62939e-7
0.443491,1.36874,1.63053e-7
0.446605,1.3685,1.58432e-7
0.449764,1.36825,1.41716e-7
0.452968,1.36801,1.19069e-7
0.456218,1.36777,1.01757e-7
0.459515,1.36753,1.00653e-7
0.462859,1.36729,9.9039e-8
0.466253,1.36705,9.71888e-8
0.469697,1.36682,9.50057e-8
0.473192,1.36658,9.35736e-8
0.47674,1.36635,9.0822e-8
0.480341,1.36613,8.95341e-8
0.483997,1.3659,8.86991e-8
0.487709,1.36567,8.80365e-8
0.491478,1.36545,8.98466e-8
0.495307,1.36523,8.97471e-8
0.499195,1.36501,8.92759e-8
0.503145,1.36479,8.79113e-8
0.507157,1.36458,8.57543e-8
0.511235,1.36437,8.59217e-8
0.515378,1.36415,8.24858e-8
0.519589,1.36394,8.13638e-8
0.52387,1.36374,7.8958e-8
0.528222,1.36353,7.87418e-8
0.532646,1.36332,7.77276e-8
0.537145,1.36312,7.71803e-8
0.541721,1.36292,7.69479e-8
0.546376,1.36272,7.72711e-8
0.551111,1.36252,7.59523e-8
0.555929,1.36233,7.66716e-8
0.560832,1.36213,7.72823e-8
0.565822,1.36194,8.45501e-8
0.570902,1.36175,8.31852e-8
0.576074,1.36156,8.24602e-8
0.581341,1.36137,8.28854e-8
0.586705,1.36119,8.34177e-8
0.592168,1.361,8.27308e-8
0.597734,1.36082,8.33924e-8
0.603406,1.36064,8.39316e-8
0.609187,1.36046,8.45591e-8
0.615079,1.36028,8.3949e-8
0.621087,1.36011,8.47136e-8
0.627213,1.35993,8.60483e-8
0.633461,1.35976,8.84845e-8
0.639835,1.35959,8.56429e-8
0.646338,1.35942,8.50196e-8
0.652975,1.35925,8.66291e-8
0.65975,1.35908,8.82322e-8
0.666667,1.35892,8.99035e-8
0.668464,1.35887,9.04583e-8
0.67027,1.35883,9.115e-8
0.672087,1.35879,9.06404e-8
0.673913,1.35875,9.13608e-8
0.675749,1.35871,9.38927e-8
0.677596,1.35866,9.28161e-8
0.679452,1.35862,9.47643e-8
0.681319,1.35858,9.30223e-8
0.683196,1.35854,9.47743e-8
0.685083,1.3585,9.67649e-8
0.686981,1.35846,9.50346e-8
0.688889,1.35842,9.59715e-8
0.690808,1.35838,9.78784e-8
0.692737,1.35833,9.97595e-8
0.694678,1.35829,9.84478e-8
0.696629,1.35825,9.85394e-8
0.698592,1.35821,9.9226e-8
0.700565,1.35817,9.93833e-8
0.70255,1.35813,1.02603e-7
0.704545,1.35809,1.02069e-7
0.706553,1.35805,1.03809e-7
0.708571,1.35801,1.04372e-7
0.710602,1.35797,1.0531e-7
0.712644,1.35793,1.07855e-7
0.714697,1.35789,1.09792e-7
0.716763,1.35785,1.09569e-7
0.718841,1.35781,1.11363e-7
0.72093,1.35777,1.12452e-7
0.723032,1.35773,1.14107e-7
0.725146,1.35769,1.17492e-7
0.727273,1.35765,1.20028e-7
0.729412,1.35761,1.25782e-7
0.731563,1.35757,1.32187e-7
0.733728,1.35753,1.40405e-7
0.735905,1.35749,1.52022e-7
0.738095,1.35745,1.65905e-7
0.740298,1.35742,1.69755e-7
0.742515,1.35738,1.70077e-7
0.744745,1.35734,1.62413e-7
0.746988,1.3573,1.54041e-7
0.749245,1.35726,1.49913e-7
0.751515,1.35722,1.48482e-7
0.753799,1.35718,1.48124e-7
0.756098,1.35714,1.4847e-7
0.75841,1.3571,1.4883e-7
0.760736,1.35707,1.52171e-7
0.763077,1.35703,1.53427e-7
0.765432,1.35699,1.52953e-7
0.767802,1.35695,1.54574e-7
0.770186,1.35691,1.52819e-7
0.772586,1.35688,1.54842e-7
0.775,1.35684,1.52598e-7
0.777429,1.3568,1.50481e-7
0.779874,1.35676,1.50079e-7
0.782334,1.35673,1.49313e-7
0.78481,1.35669,1.51013e-7
0.787302,1.35665,1.5185e-7
0.789809,1.35661,1.52192e-7
0.792332,1.35658,1.527e-7
0.794872,1.35654,1.54619e-7
0.797428,1.3565,1.56972e-7
0.8,1.35646,1.60847e-7
0.802589,1.35643,1.64109e-7
0.805195,1.35639,1.70448e-7
0.807818,1.35635,1.71936e-7
0.810457,1.35632,1.7098e-7
0.813115,1.35628,1.70074e-7
0.815789,1.35624,1.70718e-7
0.818482,1.35621,1.71858e-7
0.821192,1.35617,1.71997e-7
0.82392,1.35613,1.74165e-7
0.826667,1.3561,1.76492e-7
0.829431,1.35606,1.76057e-7
0.832215,1.35602,1.7501e-7
0.835017,1.35599,1.72072e-7
0.837838,1.35595,1.75421e-7
0.840678,1.35591,1.75208e-7
0.843537,1.35588,1.70625e-7
0.846416,1.35584,1.74244e-7
0.849315,1.35581,1.74397e-7
0.852234,1.35577,1.67684e-7
0.855172,1.35573,1.63977e-7
0.858131,1.3557,1.71876e-7
0.861111,1.35566,1.97983e-7
0.864111,1.35563,2.05023e-7
0.867133,1.35559,2.16874e-7
0.870175,1.35555,2.36497e-7
0.873239,1.35552,2.44325e-7
0.876325,1.35548,2.69473e-7
0.879433,1.35545,2.89373e-7
0.882562,1.35541,3.02536e-7
0.885714,1.35538,3.16907e-7
0.888889,1.35534,3.56083e-7
0.892086,1.3553,4.12116e-7
0.895307,1.35527,4.99978e-7
0.898551,1.35523,6.35165e-7
0.901818,1.3552,7.85737e-7
0.905109,1.35516,9.3126e-7
0.908425,1.35513,0.00000103538
0.911765,1.35509,9.55033e-7
0.915129,1.35506,7.9864e-7
0.918518,1.35502,7.14474e-7
0.921933,1.35499,6.94824e-7
0.925373,1.35495,6.85686e-7
0.928839,1.35492,6.76104e-7
0.932331,1.35488,6.66195e-7
0.935849,1.35485,6.56965e-7
0.939394,1.35481,6.37376e-7
0.942966,1.35478,6.07186e-7
0.946565,1.35474,5.58361e-7
0.950192,1.35471,5.13914e-7
0.953846,1.35467,4.75997e-7
0.957529,1.35463,4.9862e-7
0.96124,1.3546,5.59271e-7
0.964981,1.35457,5.90824e-7
0.96875,1.35453,5.95003e-7
0.972549,1.35449,6.17126e-7
0.976378,1.35446,6.60248e-7
0.980237,1.35442,7.03882e-7
0.984127,1.35439,7.67091e-7
0.988048,1.35435,8.4173e-7
0.992,1.35432,9.1986e-7
0.995984,1.35428,9.87673e-7
1,1.35425,0.00000106011
1.00405,1.35421,0.0000011296
1.00813,1.35418,0.00000121487
1.01224,1.35414,0.0000012939
1.01639,1.35411,0.00000130855
1.02058,1.35407,0.00000127137
1.02479,1.35404,0.00000121641
1.02905,1.354,0.00000116316
1.03333,1.35397,0.00000113301
1.03766,1.35393,0.00000112549
1.04202,1.3539,0.00000111987
1.04641,1.35386,0.00000112817
1.05085,1.35383,0.00000112092
1.05532,1.35379,0.00000109468
1.05983,1.35376,0.00000106335
1.06438,1.35372,0.00000104213
1.06897,1.35368,0.00000102785
1.07359,1.35365,0.00000101588
1.07826,1.35361,9.9498e-7
1.08297,1.35358,9.71114e-7
1.08772,1.35354,9.295e-7
1.09251,1.3535,8.93265e-7
1.09735,1.35347,8.62015e-7
1.10222,1.35343,8.43466e-7
1.10714,1.35339,8.41029e-7
1.11211,1.35336,8.56833e-7
1.11712,1.35332,8.67856e-7
1.12217,1.35328,9.39601e-7
1.12727,1.35325,0.00000106374
1.13242,1.35321,0.0000013827
1.13761,1.35317,0.00000206014
1.14286,1.35313,0.0000030036
1.14815,1.3531,0.00000360822
1.15349,1.35306,0.00000342597
1.15888,1.35302,0.00000400303
1.16432,1.35298,0.00000526174
1.16981,1.35294,0.00000679591
1.17536,1.35291,0.00000859548
1.18095,1.35287,0.0000112239
1.1866,1.35284,0.0000140366
1.19231,1.3528,0.00001121
1.19807,1.35276,0.00000921581
1.20388,1.35272,0.00000915705
1.20976,1.35268,0.00000915723
1.21569,1.35265,0.00000867595
1.22167,1.35261,0.00000788266
1.22772,1.35257,0.00000690398
1.23383,1.35253,0.00000594613
1.24,1.35249,0.00000512616
1.24623,1.35245,0.00000451787
1.25253,1.35241,0.00000420874
1.25888,1.35236,0.00000396473
1.26531,1.35232,0.00000374644
1.27179,1.35228,0.0000034861
1.27835,1.35224,0.00000323522
1.28497,1.3522,0.00000296744
1.29167,1.35215,0.000002782
1.29843,1.35211,0.00000270473
1.30526,1.35206,0.00000266761
1.31217,1.35202,0.0000027051
1.31915,1.35197,0.00000285402
1.3262,1.35193,0.00000311326
1.33333,1.35188,0.0000035738
1.34054,1.35184,0.00000436337
1.34783,1.35179,0.00000586524
1.35519,1.35174,0.00000945464
1.36264,1.3517,0.0000106838
1.37017,1.35165,0.0000129498
1.37778,1.3516,0.0000153093
1.38547,1.35155,0.0000156893
1.39326,1.3515,0.0000171308
1.40113,1.35145,0.0000192905
1.40909,1.3514,0.0000237097
1.41714,1.35135,0.000024425
1.42529,1.3513,0.000026995
1.43353,1.35125,0.0000298318
1.44186,1.3512,0.0000326352
1.45029,1.35115,0.0000372923
1.45882,1.35109,0.0000423343
1.46746,1.35104,0.0000468811
1.47619,1.35099,0.0000502607
1.48503,1.35094,0.0000543063
1.49398,1.35089,0.0000574747
1.50303,1.35083,0.0000598286
1.5122,1.35078,0.0000613351
1.52147,1.35072,0.0000625983
1.53086,1.35067,0.0000637736
1.54037,1.35061,0.0000655287
1.55,1.35055,0.0000682738
1.55975,1.35049,0.0000718646
1.56962,1.35043,0.0000758897
1.57962,1.35037,0.0000786017
1.58974,1.35031,0.0000781261
1.6,1.35025,0.0000742937
1.61039,1.35019,0.0000683891
1.62091,1.35012,0.0000611962
1.63158,1.35005,0.0000543599
1.64238,1.34997,0.0000490017
1.65333,1.34989,0.0000458012
1.66443,1.3498,0.000045903
1.67568,1.34969,0.0000609641
1.68707,1.34964,0.000103779
1.69863,1.34959,0.000114663
1.71034,1.34951,0.000100545
1.72222,1.34943,0.0000991395
1.73427,1.34936,0.000115768
1.74648,1.34929,0.0000805087
1.75887,1.34919,0.0000772643
1.77143,1.34911,0.0000704828
1.78417,1.34901,0.0000573758
1.7971,1.3489,0.0000508776
1.81022,1.3488,0.0000471648
1.82353,1.34869,0.0000456333
1.83704,1.34858,0.0000393216
1.85075,1.34847,0.000033437
1.86466,1.34834,0.000027129
1.87879,1.34821,0.0000266169
1.89313,1.34808,0.0000298071
1.90769,1.34794,0.000032105
1.92248,1.34781,0.0000380172
1.9375,1.34766,0.0000441027
1.95276,1.34752,0.000046115
1.96825,1.34736,0.0000455468
1.984,1.3472,0.0000469769
2,1.34702,0.0000561923
2.00485,1.34696,0.0000610278
2.00972,1.3469,0.0000667017
2.01462,1.34685,0.0000740529
2.01954,1.34679,0.0000832266
2.02449,1.34673,0.000093332
2.02946,1.34668,0.000103972
2.03445,1.34662,0.00011642
2.03947,1.34656,0.000131579
2.04452,1.34651,0.000148554
2.04959,1.34645,0.000165892
2.05468,1.3464,0.00018216
2.0598,1.34636,0.000198286
2.06495,1.34631,0.000212328
2.07012,1.34627,0.000224785
2.07531,1.34623,0.000233365
2.08054,1.34619,0.000237373
2.08579,1.34614,0.000237275
2.09106,1.3461,0.000233422
2.09637,1.34605,0.000227408
2.10169,1.34599,0.000219813
2.10705,1.34594,0.00021255
2.11244,1.34588,0.000204327
2.11785,1.34582,0.000194706
2.12329,1.34575,0.000184964
2.12876,1.34569,0.000176388
2.13425,1.34561,0.000168763
2.13978,1.34554,0.000161461
2.14533,1.34547,0.000154637
2.15091,1.34539,0.000148408
2.15652,1.34531,0.000143367
2.16216,1.34522,0.0001402
2.16783,1.34514,0.000138719
2.17353,1.34505,0.000138337
2.17926,1.34497,0.000137686
2.18502,1.34488,0.00013509
2.19081,1.34478,0.000132906
2.19663,1.34468,0.000133106
2.20249,1.34458,0.000134754
2.20837,1.34448,0.000137677
2.21429,1.34437,0.00014289
2.22023,1.34425,0.000150837
2.22621,1.34413,0.000162899
2.23222,1.344,0.000180541
2.23827,1.34387,0.000207746
2.24434,1.34372,0.000246008
2.25045,1.34357,0.000308254
2.2566,1.34341,0.000422823
2.26277,1.34331,0.000612694
2.26898,1.34336,0.000782195
2.27523,1.34344,0.00079125
2.28151,1.34342,0.000727047
2.28782,1.3433,0.00067012
2.29417,1.34316,0.00068738
2.30056,1.34306,0.000815239
2.30698,1.3432,0.00099187
2.31343,1.34325,0.000821319
2.31993,1.34319,0.000645307
2.32645,1.34303,0.000540953
2.33302,1.34285,0.00047389
2.33962,1.34266,0.000464457
2.34626,1.34249,0.000519852
2.35294,1.34243,0.000571802
2.35966,1.34237,0.000497796
2.36641,1.34222,0.000421729
2.37321,1.34203,0.000392247
2.38004,1.34186,0.000380367
2.38691,1.34167,0.000374616
2.39382,1.34149,0.000391033
2.40077,1.34132,0.00041266
2.40777,1.34116,0.000423308
2.4148,1.34099,0.000430341
2.42188,1.34082,0.00042825
2.42899,1.34062,0.000430681
2.43615,1.34041,0.000456194
2.44335,1.3402,0.000502777
2.45059,1.34,0.00057015
2.45788,1.33985,0.000650862
2.46521,1.33974,0.000681194
2.47258,1.33959,0.00066277
2.48,1.33941,0.000660214
2.48746,1.33925,0.000656348
2.49497,1.33905,0.000626145
2.50252,1.33885,0.000605436
2.51012,1.33866,0.000570366
2.51777,1.33844,0.000508533
2.52546,1.33818,0.000441459
2.5332,1.33789,0.00038033
2.54098,1.33758,0.000331464
2.54882,1.33725,0.000289356
2.5567,1.3369,0.000258969
2.56463,1.33654,0.000240253
2.57261,1.33615,0.000236017
2.58065,1.33576,0.000248518
2.58873,1.33537,0.000271597
2.59686,1.33498,0.000278366
2.60504,1.33456,0.000269271
2.61328,1.33411,0.000270256
2.62156,1.33363,0.000282645
2.6299,1.33314,0.000294126
2.6383,1.33262,0.000303156
2.64674,1.33207,0.00031712
2.65525,1.33149,0.000332352
2.6638,1.33087,0.000343185
2.67241,1.33018,0.000363391
2.68108,1.32948,0.000364393
2.6898,1.32875,0.000362951
2.69859,1.32788,0.000476139
2.70742,1.327,0.000555764
2.71632,1.32596,0.000650942
2.72527,1.32491,0.000626715
2.73429,1.32364,0.000774059
2.74336,1.3223,0.0011234
2.7525,1.3209,0.00143
2.76169,1.31928,0.00185939
2.77095,1.31751,0.00236191
2.78027,1.3158,0.00316598
2.78965,1.31368,0.00409235
2.7991,1.31157,0.00544684
2.80861,1.30939,0.00699496
2.81818,1.30712,0.00887445
2.82782,1.30496,0.0114025
2.83753,1.30283,0.0142758
2.8473,1.30101,0.0174279
2.85714,1.29943,0.0213146
2.86705,1.29804,0.0251147
2.87703,1.29718,0.029505
2.88708,1.29675,0.034331
2.8972,1.2969,0.03939
2.90739,1.2976,0.0447229
2.91765,1.29908,0.0500415
2.92798,1.30126,0.0554151
2.93839,1.30413,0.060936
2.94887,1.30828,0.0667262
2.95943,1.31335,0.0713194
2.97006,1.31931,0.075944
2.98077,1.32663,0.0790396
2.99156,1.334,0.0805108
3.00242,1.34144,0.0807287
3.01337,1.34851,0.0798455
3.02439,1.3551,0.0781642
3.0355,1.36114,0.0754195
3.04668,1.36643,0.0720911
3.05795,1.37112,0.0685898
3.06931,1.37538,0.0642915
3.08075,1.37885,0.059787
3.09227,1.38146,0.0549073
3.10388,1.38342,0.0496194
3.11558,1.38435,0.0446931
3.12736,1.38439,0.0400572
3.13924,1.38406,0.035443
3.15121,1.38302,0.0313894
3.16327,1.38164,0.0277372
3.17542,1.37992,0.0245897
3.18766,1.37796,0.0217929
3.2,1.37586,0.0192949
3.21244,1.37356,0.0172238
3.22497,1.37104,0.0155033
3.2376,1.36847,0.0140691
3.25033,1.36578,0.012885
3.26316,1.36263,0.0119224
3.27609,1.35935,0.0113199
3.28912,1.35537,0.0110335
3.30226,1.35055,0.0112145
3.31551,1.34439,0.0122506
3.32886,1.33532,0.0153354
3.34232,1.32024,0.025824
3.35589,1.31321,0.0729199
3.36957,1.3872,0.0743972
3.38336,1.37959,0.034298
3.39726,1.36454,0.0335699
3.41128,1.36369,0.0411746
3.42541,1.36958,0.0398044
3.43967,1.3667,0.0408388
3.45404,1.37169,0.047275
3.46853,1.38046,0.04888
3.48315,1.39277,0.0435372
3.49788,1.39546,0.0310838
3.51275,1.39266,0.0241189
3.52774,1.39045,0.020253
3.54286,1.38854,0.0168682
3.55811,1.3866,0.0147299
3.57349,1.38517,0.0120414
3.589,1.38266,0.0102235
3.60465,1.38041,0.00936639
3.62044,1.37851,0.00908442
3.63636,1.37755,0.00919998
3.65243,1.37702,0.00893635
3.66864,1.37664,0.00852398
3.68499,1.37635,0.00754838
3.70149,1.37568,0.00686798
3.71814,1.37508,0.00587198
3.73494,1.3741,0.00497401
3.75189,1.37305,0.0043176
3.769,1.37195,0.0039808
3.78626,1.37103,0.0038544
3.80368,1.37022,0.003766
3.82126,1.36965,0.0036024
3.83901,1.36892,0.0033792
3.85692,1.36826,0.0033012
3.875,1.3676,0.00341202
3.89325,1.36694,0.003272
3.91167,1.36636,0.00354839
3.93027,1.36616,0.00388878
3.94904,1.36631,0.00386723
3.968,1.366,0.00362842
3.98714,1.3657,0.003576
4.00646,1.36575,0.00341641
4.02597,1.36555,0.0030624
4.04568,1.36538,0.00264283
4.06557,1.36484,0.00221598
4.08567,1.36416,0.00182998
4.10596,1.36361,0.00178
4.12646,1.36306,0.00198638
