Wavelength (nm)	Transmittance
200	0.215724
201	0.2140162
202	0.2123285
203	0.2106623
204	0.2089849
205	0.2073115
206	0.2056082
207	0.2038933
208	0.2021448
209	0.2003076
210	0.198426
211	0.1966262
212	0.1948695
213	0.1933329
214	0.1919767
215	0.1911804
216	0.1903444
217	0.1894395
218	0.1880464
219	0.1861387
220	0.1842078
221	0.1822652
222	0.1807612
223	0.1795462
224	0.1783609
225	0.1771984
226	0.175803
227	0.174241
228	0.1726571
229	0.1710523
230	0.1695331
231	0.1681295
232	0.1667489
233	0.1654065
234	0.1640802
235	0.162794
236	0.1615214
237	0.1602959
238	0.1590895
239	0.1579399
240	0.1568349
241	0.155753
242	0.1547191
243	0.1536944
244	0.1527621
245	0.1518475
246	0.1509147
247	0.1499621
248	0.1490102
249	0.1478301
250	0.1466625
251	0.145524
252	0.1444128
253	0.143313
254	0.1426128
255	0.141929
256	0.1412331
257	0.1405127
258	0.1397973
259	0.1387634
260	0.1376028
261	0.1364552
262	0.135297
263	0.1341515
264	0.1330829
265	0.1322793
266	0.1314824
267	0.1307077
268	0.1299655
269	0.1292292
270	0.1284191
271	0.127527
272	0.1266435
273	0.1257602
274	0.1248775
275	0.1240033
276	0.1231818
277	0.1224152
278	0.1216552
279	0.1208935
280	0.120125
281	0.1193633
282	0.1185806
283	0.1177074
284	0.1168431
285	0.1159876
286	0.1151801
287	0.1143813
288	0.1135902
289	0.1129439
290	0.1123729
291	0.111806
292	0.1112514
293	0.1107232
294	0.1101985
295	0.1096773
296	0.1090886
297	0.1084867
298	0.1078895
299	0.1072857
300	0.1066512
301	0.106022
302	0.1053981
303	0.1047473
304	0.1040809
305	0.1034206
306	0.1027662
307	0.1021107
308	0.10146
309	0.1008152
310	0.1001789
311	0.0996097
312	0.0990453
313	0.0984854
314	0.0979298
315	0.0973759
316	0.0968266
317	0.0962817
318	0.0957367
319	0.0951506
320	0.0945696
321	0.0939937
322	0.0934228
323	0.092861
324	0.0923042
325	0.0917523
326	0.091205
327	0.0906898
328	0.0901894
329	0.0896929
330	0.0892004
331	0.0887222
332	0.088265
333	0.0878112
334	0.0873608
335	0.0869138
336	0.0865119
337	0.0861173
338	0.0857253
339	0.085336
340	0.0849431
341	0.0845395
342	0.0841387
343	0.0837406
344	0.0833454
345	0.0828975
346	0.0824166
347	0.0819397
348	0.0814668
349	0.0809978
350	0.0805259
351	0.0800556
352	0.0795893
353	0.0791269
354	0.0786684
355	0.0782484
356	0.0778425
357	0.0774396
358	0.0770398
359	0.076643
360	0.0762631
361	0.0758945
362	0.0755284
363	0.075165
364	0.0748041
365	0.0744588
366	0.0741409
367	0.0738251
368	0.0735112
369	0.0731992
370	0.0728892
371	0.0725719
372	0.0722554
373	0.071941
374	0.0716286
375	0.0713183
376	0.0709928
377	0.0706281
378	0.0702661
379	0.0699069
380	0.0695503
381	0.0691965
382	0.0688439
383	0.0684927
384	0.0681442
385	0.0677983
386	0.0674549
387	0.0671141
388	0.0667978
389	0.0665014
390	0.0662069
391	0.0659144
392	0.0656238
393	0.0653351
394	0.0650522
395	0.0647768
396	0.0645031
397	0.0642311
398	0.0639609
399	0.0636923
400	0.0634254
401	0.0631591
402	0.0628944
403	0.0626314
404	0.0623701
405	0.0621103
406	0.0618522
407	0.061591
408	0.0613267
409	0.061064
410	0.0608031
411	0.0605437
412	0.0602861
413	0.06003
414	0.0597565
415	0.0594775
416	0.0592004
417	0.0589252
418	0.0586519
419	0.0583804
420	0.0581109
421	0.0578452
422	0.0575822
423	0.057321
424	0.0570615
425	0.0568038
426	0.0565478
427	0.0562935
428	0.056052
429	0.055825
430	0.0555994
431	0.0553751
432	0.0551522
433	0.0549306
434	0.0547103
435	0.0544914
436	0.0542886
437	0.0540875
438	0.0538876
439	0.0536888
440	0.0534911
441	0.0532944
442	0.0530988
443	0.0528976
444	0.0526707
445	0.0524453
446	0.0522213
447	0.0519988
448	0.0517777
449	0.0515579
450	0.0513396
451	0.0511248
452	0.050924
453	0.0507245
454	0.0505261
455	0.0503289
456	0.0501329
457	0.049938
458	0.0497442
459	0.0495516
460	0.0493399
461	0.0491247
462	0.0489108
463	0.0486983
464	0.0484872
465	0.0482774
466	0.048069
467	0.0478619
468	0.0476582
469	0.0474686
470	0.0472802
471	0.0470929
472	0.0469067
473	0.0467217
474	0.0465377
475	0.0463548
476	0.046173
477	0.0459917
478	0.0458081
479	0.0456255
480	0.0454441
481	0.0452637
482	0.0450844
483	0.0449062
484	0.0447291
485	0.0445529
486	0.0443779
487	0.0442141
488	0.0440542
489	0.0438951
490	0.0437369
491	0.0435796
492	0.0434231
493	0.0432674
494	0.0431126
495	0.0429586
496	0.0428054
497	0.042651
498	0.0424974
499	0.0423447
500	0.0421928
501	0.0420418
502	0.0418915
503	0.0417421
504	0.0415934
505	0.0414456
506	0.0412986
507	0.0411388
508	0.0409791
509	0.0408203
510	0.0406625
511	0.0405056
512	0.0403496
513	0.0401945
514	0.0400403
515	0.039887
516	0.0397346
517	0.0395782
518	0.0394157
519	0.0392542
520	0.0390937
521	0.0389342
522	0.0387757
523	0.0386181
524	0.0384615
525	0.0383059
526	0.0381512
527	0.0379974
528	0.0378577
529	0.0377382
530	0.0376193
531	0.037501
532	0.0373832
533	0.037266
534	0.0371494
535	0.0370333
536	0.0369177
537	0.0368028
538	0.0366883
539	0.0365744
540	0.0364335
541	0.0362913
542	0.03615
543	0.0360095
544	0.0358699
545	0.035731
546	0.035593
547	0.0354558
548	0.0353194
549	0.0351838
550	0.035049
551	0.0349149
552	0.034791
553	0.0346681
554	0.034546
555	0.0344245
556	0.0343037
557	0.0341835
558	0.0340639
559	0.033945
560	0.0338267
561	0.0337091
562	0.033592
563	0.0334756
564	0.0333645
565	0.03326
566	0.033156
567	0.0330525
568	0.0329495
569	0.032847
570	0.0327449
571	0.0326434
572	0.0325423
573	0.0324417
574	0.0323416
575	0.032242
576	0.0321428
577	0.0320463
578	0.031955
579	0.0318641
580	0.0317736
581	0.0316834
582	0.0315937
583	0.0315043
584	0.0314153
585	0.0313267
586	0.0312385
587	0.0311507
588	0.0310632
589	0.0309761
590	0.0308894
591	0.0308018
592	0.0307137
593	0.0306261
594	0.0305388
595	0.0304518
596	0.0303653
597	0.0302791
598	0.0301933
599	0.0301079
600	0.0300228
601	0.0299381
602	0.0298538
603	0.0297698
604	0.0296862
605	0.0296021
606	0.0295149
607	0.0294282
608	0.0293418
609	0.0292558
610	0.0291701
611	0.0290849
612	0.0290001
613	0.0289156
614	0.0288315
615	0.0287477
616	0.0286644
617	0.0285814
618	0.0284988
619	0.0284165
620	0.0283351
621	0.0282604
622	0.028186
623	0.0281118
624	0.028038
625	0.0279645
626	0.0278912
627	0.0278183
628	0.0277456
629	0.0276733
630	0.0276012
631	0.0275294
632	0.0274578
633	0.0273866
634	0.0273156
635	0.0272449
636	0.0271757
637	0.0271121
638	0.0270487
639	0.0269855
640	0.0269226
641	0.0268598
642	0.0267973
643	0.026735
644	0.0266729
645	0.026611
646	0.0265494
647	0.0264879
648	0.0264267
649	0.0263656
650	0.0263048
651	0.0262442
652	0.0261838
653	0.0261193
654	0.02605
655	0.025981
656	0.0259122
657	0.0258437
658	0.0257754
659	0.0257075
660	0.0256398
661	0.0255724
662	0.0255052
663	0.0254384
664	0.0253718
665	0.0253054
666	0.0252393
667	0.0251735
668	0.0251079
669	0.0250426
670	0.0249776
671	0.0249092
672	0.0248403
673	0.0247717
674	0.0247034
675	0.0246354
676	0.0245676
677	0.0245002
678	0.024433
679	0.0243661
680	0.0242994
681	0.0242331
682	0.024167
683	0.0241012
684	0.0240356
685	0.0239703
686	0.0239053
687	0.0238406
688	0.0237761
689	0.0237147
690	0.0236655
691	0.0236165
692	0.0235677
693	0.0235189
694	0.0234703
695	0.0234219
696	0.0233736
697	0.0233254
698	0.0232773
699	0.0232294
700	0.0231816
701	0.0231339
702	0.0230864
703	0.023039
704	0.0229918
705	0.0229446
706	0.0228976
707	0.0228508
708	0.022804
709	0.0227562
710	0.0227074
711	0.0226587
712	0.0226101
713	0.0225617
714	0.0225134
715	0.0224652
716	0.0224171
717	0.0223692
718	0.0223214
719	0.0222737
720	0.0222262
721	0.0221787
722	0.0221314
723	0.0220842
724	0.0220372
725	0.0219903
726	0.0219435
727	0.0218968
728	0.0218502
729	0.0218038
730	0.0217989
731	0.0218133
732	0.0218276
733	0.0218417
734	0.0218557
735	0.0218695
736	0.0218831
737	0.0218965
738	0.0219098
739	0.0219228
740	0.0219358
741	0.0219485
742	0.0219611
743	0.0219735
744	0.0219858
745	0.0219979
746	0.0220098
747	0.0220216
748	0.0220332
749	0.0220446
750	0.0220559
751	0.022067
752	0.0221008
753	0.0221517
754	0.0222025
755	0.0222532
756	0.0223037
757	0.0223542
758	0.0224045
759	0.0224547
760	0.0225048
761	0.0225548
762	0.0226046
763	0.0226544
764	0.022704
765	0.0227535
766	0.0228029
767	0.0228522
768	0.0229013
769	0.0229503
770	0.0229992
771	0.023048
772	0.0230967
773	0.0231452
774	0.0231937
775	0.0232475
776	0.023357
777	0.0234668
778	0.0235768
779	0.0236869
780	0.0237973
781	0.0239079
782	0.0240187
783	0.0241296
784	0.0242408
785	0.0243522
786	0.0244637
787	0.0245755
788	0.0246874
789	0.0247995
790	0.0249119
791	0.0250244
792	0.025137
793	0.0252499
794	0.025363
795	0.0254762
796	0.0255897
797	0.0257033
798	0.0258171
799	0.0259311
800	0.0260481
801	0.0261916
802	0.0263356
803	0.0264803
804	0.0266256
805	0.0267714
806	0.0269179
807	0.027065
808	0.0272126
809	0.0273609
810	0.0275098
811	0.0276593
812	0.0278094
813	0.0279601
814	0.0281115
815	0.0282635
816	0.028416
817	0.0285692
818	0.0287231
819	0.0288775
820	0.0290326
821	0.0291884
822	0.0293447
823	0.0295017
824	0.0296593
825	0.0298176
826	0.0299765
827	0.0301337
828	0.0302883
829	0.0304436
830	0.0305996
831	0.0307562
832	0.0309134
833	0.0310713
834	0.0312298
835	0.031389
836	0.0315488
837	0.0317093
838	0.0318704
839	0.0320322
840	0.0321947
841	0.0323578
842	0.0325216
843	0.0326861
844	0.0328512
845	0.033017
846	0.0331835
847	0.0333506
848	0.0335185
849	0.033687
850	0.0338562
851	0.0340261
852	0.0341967
853	0.034368
854	0.03454
855	0.0347127
856	0.0348683
857	0.035023
858	0.0351783
859	0.0353342
860	0.0354906
861	0.0356475
862	0.035805
863	0.035963
864	0.0361216
865	0.0362807
866	0.0364404
867	0.0366006
868	0.0367614
869	0.0369227
870	0.0370846
871	0.037247
872	0.0374101
873	0.0375736
874	0.0377378
875	0.0379025
876	0.0380677
877	0.0382336
878	0.0384
879	0.038567
880	0.0387345
881	0.0389026
882	0.0390713
883	0.0392406
884	0.0394104
885	0.0395809
886	0.039707
887	0.0397629
888	0.0398187
889	0.0398743
890	0.0399298
891	0.0399851
892	0.0400403
893	0.0400953
894	0.0401502
895	0.0402049
896	0.0402594
897	0.0403138
898	0.040368
899	0.040422
900	0.0404759
901	0.0405296
902	0.0405832
903	0.0406365
904	0.0406898
905	0.0407428
906	0.0407957
907	0.0408484
908	0.0409009
909	0.0409532
910	0.0410054
911	0.0410574
912	0.0411092
913	0.0411609
914	0.0412123
915	0.0412636
916	0.0413147
917	0.0413656
918	0.0414164
919	0.0413872
920	0.0413026
921	0.0412179
922	0.0411331
923	0.0410482
924	0.0409632
925	0.0408782
926	0.0407931
927	0.0407079
928	0.0406226
929	0.0405373
930	0.0404519
931	0.0403665
932	0.0402809
933	0.0401953
934	0.0401097
935	0.040024
936	0.0399382
937	0.0398524
938	0.0397665
939	0.0396806
940	0.0395946
941	0.0395086
942	0.0394225
943	0.0393364
944	0.0392502
945	0.039164
946	0.0390778
947	0.0389915
948	0.0389052
949	0.0388189
950	0.0387325
951	0.0386461
952	0.0385597
953	0.0384732
954	0.0383759
955	0.0382497
956	0.0381239
957	0.0379987
958	0.037874
959	0.0377497
960	0.037626
961	0.0375027
962	0.03738
963	0.0372577
964	0.0371359
965	0.0370146
966	0.0368938
967	0.0367735
968	0.0366536
969	0.0365343
970	0.0364154
971	0.0362969
972	0.036179
973	0.0360615
974	0.0359445
975	0.0358279
976	0.0357118
977	0.0355962
978	0.035481
979	0.0353663
980	0.0352521
981	0.0351383
982	0.0350249
983	0.034912
984	0.0347996
985	0.0346875
986	0.034576
987	0.0344649
988	0.0343542
989	0.0342439
990	0.0341341
991	0.0340248
992	0.0339189
993	0.033836
994	0.0337533
995	0.0336709
996	0.0335887
997	0.0335067
998	0.033425
999	0.0333436
1000	0.0332624
1001	0.0331814
1002	0.0331007
1003	0.0330202
1004	0.0329399
1005	0.0328599
1006	0.0327802
1007	0.0327006
1008	0.0326213
1009	0.0325423
1010	0.0324634
1011	0.0323848
1012	0.0323065
1013	0.0322283
1014	0.0321505
1015	0.0320728
1016	0.0319954
1017	0.0319182
1018	0.0318412
1019	0.0317645
1020	0.0316879
1021	0.0316117
1022	0.0315356
1023	0.0314598
1024	0.0313842
1025	0.0313088
1026	0.0312336
1027	0.0311587
1028	0.031084
1029	0.0310095
1030	0.0309352
1031	0.0308612
1032	0.0307873
1033	0.0307137
1034	0.0306263
1035	0.0305354
1036	0.030445
1037	0.0303548
1038	0.0302651
1039	0.0301756
1040	0.0300866
1041	0.0299979
1042	0.0299095
1043	0.0298215
1044	0.0297338
1045	0.0296465
1046	0.0295595
1047	0.0294728
1048	0.0293865
1049	0.0293006
1050	0.0292149
1051	0.0291296
1052	0.0290446
1053	0.02896
1054	0.0288757
1055	0.0287917
1056	0.0287081
1057	0.0286247
1058	0.0285417
1059	0.028459
1060	0.0283767
1061	0.0282946
1062	0.0282129
1063	0.0281315
1064	0.0280504
1065	0.0279696
1066	0.0278891
1067	0.027809
1068	0.0277291
1069	0.0276496
1070	0.0275703
1071	0.0274914
1072	0.0274128
1073	0.0273344
1074	0.0272564
1075	0.0271787
1076	0.0271013
1077	0.0270241
1078	0.0269473
1079	0.0268787
1080	0.0268116
1081	0.0267447
1082	0.026678
1083	0.0266116
1084	0.0265454
1085	0.0264795
1086	0.0264137
1087	0.0263482
1088	0.0262829
1089	0.0262179
1090	0.026153
1091	0.0260884
1092	0.026024
1093	0.0259599
1094	0.0258959
1095	0.0258322
1096	0.0257687
1097	0.0257054
1098	0.0256424
1099	0.0255795
1100	0.0255169
1101	0.0254545
1102	0.0253923
1103	0.0253303
1104	0.0252685
1105	0.0252069
1106	0.0251455
1107	0.0250844
1108	0.0250234
1109	0.0249627
1110	0.0249022
1111	0.0248418
1112	0.0247817
1113	0.0247218
1114	0.0246621
1115	0.0246026
1116	0.0245433
1117	0.0244842
1118	0.0244252
1119	0.0243665
1120	0.024308
1121	0.0242497
1122	0.0241916
1123	0.0241337
1124	0.0240759
1125	0.0240184
1126	0.023961
1127	0.0239039
1128	0.0238543
1129	0.0238061
1130	0.023758
1131	0.0237101
1132	0.0236622
1133	0.0236146
1134	0.023567
1135	0.0235196
1136	0.0234724
1137	0.0234253
1138	0.0233783
1139	0.0233314
1140	0.0232847
1141	0.0232381
1142	0.0231917
1143	0.0231454
1144	0.0230992
1145	0.0230531
1146	0.0230072
1147	0.0229614
1148	0.0229158
1149	0.0228702
1150	0.0228248
1151	0.0227796
1152	0.0227344
1153	0.0226894
1154	0.0226445
1155	0.0225998
1156	0.0225552
1157	0.0225107
1158	0.0224663
1159	0.0224221
1160	0.0223779
1161	0.0223339
1162	0.0222901
1163	0.0222463
1164	0.0222027
1165	0.0221592
1166	0.0221158
1167	0.0220726
1168	0.0220294
1169	0.0219864
1170	0.0219435
1171	0.0219007
1172	0.0218581
1173	0.0218156
1174	0.0217732
1175	0.0217309
1176	0.0216887
1177	0.0216466
1178	0.0216047
1179	0.0215629
1180	0.0215212
1181	0.0214786
1182	0.0214323
1183	0.0213862
1184	0.0213401
1185	0.0212943
1186	0.0212485
1187	0.0212029
1188	0.0211574
1189	0.0211121
1190	0.0210669
1191	0.0210219
1192	0.0209769
1193	0.0209322
1194	0.0208875
1195	0.020843
1196	0.0207986
1197	0.0207544
1198	0.0207103
1199	0.0206663
1200	0.0206225
1201	0.0205788
1202	0.0205352
1203	0.0204918
1204	0.0204485
1205	0.0204053
1206	0.0203622
1207	0.0203193
1208	0.0202765
1209	0.0202339
1210	0.0201913
1211	0.0201489
1212	0.0201067
1213	0.0200645
1214	0.0200225
1215	0.0199806
1216	0.0199388
1217	0.0198972
1218	0.0198556
1219	0.0198142
1220	0.019773
1221	0.0197318
1222	0.0196908
1223	0.0196499
1224	0.0196091
1225	0.0195684
1226	0.0195278
1227	0.0194874
1228	0.0194471
1229	0.0194069
1230	0.0193668
1231	0.0193269
1232	0.0192871
1233	0.0192473
1234	0.0192077
1235	0.0191683
1236	0.0191289
1237	0.0190896
1238	0.0190505
1239	0.0190115
1240	0.0189736
1241	0.0189416
1242	0.0189098
1243	0.018878
1244	0.0188463
1245	0.0188146
1246	0.0187831
1247	0.0187516
1248	0.0187202
1249	0.0186889
1250	0.0186576
1251	0.0186264
1252	0.0185953
1253	0.0185643
1254	0.0185334
1255	0.0185025
1256	0.0184717
1257	0.018441
1258	0.0184103
1259	0.0183797
1260	0.0183492
1261	0.0183188
1262	0.0182884
1263	0.0182582
1264	0.018228
1265	0.0181978
1266	0.0181678
1267	0.0181378
1268	0.0181079
1269	0.018078
1270	0.0180482
1271	0.0180185
1272	0.0179889
1273	0.0179593
1274	0.0179299
1275	0.0179004
1276	0.0178711
1277	0.0178418
1278	0.0178126
1279	0.0177835
1280	0.0177544
1281	0.0177254
1282	0.0176965
1283	0.0176676
1284	0.0176388
1285	0.0176101
1286	0.0175814
1287	0.0175528
1288	0.0175243
1289	0.0174959
1290	0.0174675
1291	0.0174392
1292	0.0174109
1293	0.0173827
1294	0.0173546
1295	0.0173266
1296	0.0172986
1297	0.0172707
1298	0.0172428
1299	0.017215
1300	0.0171873
1301	0.0171597
1302	0.0171321
1303	0.0171045
1304	0.0170771
1305	0.0170497
1306	0.0170207
1307	0.0169917
1308	0.0169626
1309	0.0169337
1310	0.0169048
1311	0.0168761
1312	0.0168473
1313	0.0168187
1314	0.0167901
1315	0.0167616
1316	0.0167332
1317	0.0167048
1318	0.0166765
1319	0.0166483
1320	0.0166201
1321	0.016592
1322	0.016564
1323	0.0165361
1324	0.0165082
1325	0.0164804
1326	0.0164526
1327	0.016425
1328	0.0163974
1329	0.0163698
1330	0.0163423
1331	0.0163149
1332	0.0162876
1333	0.0162603
1334	0.0162331
1335	0.016206
1336	0.0161789
1337	0.0161519
1338	0.016125
1339	0.0160981
1340	0.0160713
1341	0.0160446
1342	0.0160179
1343	0.0159913
1344	0.0159647
1345	0.0159383
1346	0.0159118
1347	0.0158855
1348	0.0158592
1349	0.015833
1350	0.0158068
1351	0.0157807
1352	0.0157547
1353	0.0157287
1354	0.0157028
1355	0.015677
1356	0.0156512
1357	0.0156255
1358	0.0155998
1359	0.0155742
1360	0.0155487
1361	0.0155232
1362	0.0154978
1363	0.0154724
1364	0.0154471
1365	0.0154219
1366	0.0153967
1367	0.0153716
1368	0.0153465
1369	0.0153216
1370	0.0152966
1371	0.0152717
1372	0.0152469
1373	0.0152222
1374	0.0151975
1375	0.0151728
1376	0.0151483
1377	0.0151237
1378	0.015099
1379	0.0150738
1380	0.0150488
1381	0.0150238
1382	0.0149988
1383	0.0149739
1384	0.0149491
1385	0.0149243
1386	0.0148996
1387	0.0148749
1388	0.0148503
1389	0.0148258
1390	0.0148013
1391	0.0147769
1392	0.0147526
1393	0.0147283
1394	0.014704
1395	0.0146799
1396	0.0146558
1397	0.0146317
1398	0.0146077
1399	0.0145838
1400	0.0145599
1401	0.014536
1402	0.0145123
1403	0.0144886
1404	0.0144649
1405	0.0144413
1406	0.0144178
1407	0.0143943
1408	0.0143709
1409	0.0143475
1410	0.0143242
1411	0.0143009
1412	0.0142777
1413	0.0142546
1414	0.0142315
1415	0.0142084
1416	0.0141855
1417	0.0141625
1418	0.0141397
1419	0.0141168
1420	0.0140941
1421	0.0140714
1422	0.0140487
1423	0.0140261
1424	0.0140036
1425	0.0139811
1426	0.0139586
1427	0.0139362
1428	0.0139139
1429	0.0138916
1430	0.0138694
1431	0.0138472
1432	0.0138251
1433	0.013803
1434	0.013781
1435	0.013759
1436	0.0137371
1437	0.0137153
1438	0.0136935
1439	0.0136717
1440	0.01365
1441	0.0136283
1442	0.0136067
1443	0.0135852
1444	0.0135636
1445	0.0135422
1446	0.0135208
1447	0.0134994
1448	0.0134781
1449	0.0134569
1450	0.0134357
1451	0.0134145
1452	0.0133934
1453	0.0133723
1454	0.0133513
1455	0.0133303
1456	0.0133094
1457	0.0132886
1458	0.0132677
1459	0.0132456
1460	0.0132209
1461	0.0131963
1462	0.0131718
1463	0.0131474
1464	0.013123
1465	0.0130986
1466	0.0130744
1467	0.0130502
1468	0.013026
1469	0.013002
1470	0.012978
1471	0.012954
1472	0.0129302
1473	0.0129064
1474	0.0128826
1475	0.012859
1476	0.0128353
1477	0.0128118
1478	0.0127883
1479	0.0127649
1480	0.0127415
1481	0.0127182
1482	0.012695
1483	0.0126718
1484	0.0126487
1485	0.0126256
1486	0.0126027
1487	0.0125797
1488	0.0125569
1489	0.0125341
1490	0.0125113
1491	0.0124886
1492	0.012466
1493	0.0124434
1494	0.0124209
1495	0.0123985
1496	0.0123761
1497	0.0123538
1498	0.0123315
1499	0.0123093
1500	0.0122871
1501	0.0122651
1502	0.012243
1503	0.012221
1504	0.0121991
1505	0.0121773
1506	0.0121555
