Wavelength (nm)	Transmittance
200	0.8825804
201	0.8878607
202	0.8932647
203	0.898766
204	0.9043374
205	0.9099521
206	0.9155831
207	0.9212041
208	0.9267888
209	0.9323115
210	0.937747
211	0.9439971
212	0.9500393
213	0.9558406
214	0.9613705
215	0.9666009
216	0.9714402
217	0.9759426
218	0.9800893
219	0.9838643
220	0.9872547
221	0.9902202
222	0.9927938
223	0.994972
224	0.9967539
225	0.9981414
226	0.9991327
227	0.9997472
228	0.9999938
229	0.9998836
230	0.999429
231	0.9986543
232	0.9975714
233	0.9961964
234	0.9945462
235	0.9926385
236	0.9905088
237	0.9881612
238	0.985614
239	0.9828853
240	0.9799931
241	0.9769781
242	0.9738363
243	0.9705843
244	0.9672382
245	0.9638136
246	0.9603336
247	0.9568044
248	0.9532394
249	0.9496516
250	0.946053
251	0.9424777
252	0.9389125
253	0.9353672
254	0.9318509
255	0.928372
256	0.9249508
257	0.9215805
258	0.9182677
259	0.9150183
260	0.9118376
261	0.9087349
262	0.9057093
263	0.9027648
264	0.8999045
265	0.8971316
266	0.8944538
267	0.8918666
268	0.8893719
269	0.8869713
270	0.8846661
271	0.8824578
272	0.880346
273	0.878331
274	0.8764134
275	0.8745932
276	0.8728674
277	0.8712372
278	0.8697024
279	0.8682624
280	0.8669166
281	0.8656643
282	0.8645047
283	0.863437
284	0.86246
285	0.8615728
286	0.8607638
287	0.8600408
288	0.8594025
289	0.8588478
290	0.8583752
291	0.8579834
292	0.8576709
293	0.8574365
294	0.8572784
295	0.8571954
296	0.8571692
297	0.8572139
298	0.857328
299	0.8575098
300	0.8577579
301	0.8580707
302	0.8584468
303	0.8588844
304	0.8593821
305	0.8599383
306	0.8605408
307	0.8611984
308	0.8619093
309	0.8626722
310	0.8634854
311	0.864336
312	0.8652336
313	0.8661767
314	0.8671639
315	0.8681935
316	0.8692642
317	0.8703745
318	0.871523
319	0.8727081
320	0.8739285
321	0.8751699
322	0.8764436
323	0.8777481
324	0.8790821
325	0.8804442
326	0.88182
327	0.8832211
328	0.8846461
329	0.8860939
330	0.8875632
331	0.8890526
332	0.8905609
333	0.8920868
334	0.8936293
335	0.8951869
336	0.8967454
337	0.8983167
338	0.8998998
339	0.9014934
340	0.9030966
341	0.9047082
342	0.9063271
343	0.9079523
344	0.9095826
345	0.9112172
346	0.9128549
347	0.9144948
348	0.9161358
349	0.9177771
350	0.9194176
351	0.921044
352	0.922668
353	0.9242887
354	0.9259054
355	0.927517
356	0.9291229
357	0.9307223
358	0.9323143
359	0.9338981
360	0.9354732
361	0.9370386
362	0.9385938
363	0.9401379
364	0.9416704
365	0.9431907
366	0.9446872
367	0.9461704
368	0.9476397
369	0.9490947
370	0.9505348
371	0.9519594
372	0.9533679
373	0.9547601
374	0.9561353
375	0.9574931
376	0.9588237
377	0.9601365
378	0.9614309
379	0.9627067
380	0.9639634
381	0.9652007
382	0.9664184
383	0.9676161
384	0.9687935
385	0.9699504
386	0.9710864
387	0.9722015
388	0.9732952
389	0.9743675
390	0.9754182
391	0.9764471
392	0.9774539
393	0.9784387
394	0.9794012
395	0.9803413
396	0.981259
397	0.9821542
398	0.9830267
399	0.9838766
400	0.9847038
401	0.985503
402	0.9862798
403	0.9870341
404	0.9877661
405	0.9884756
406	0.9891627
407	0.9898275
408	0.99047
409	0.9910902
410	0.9916883
411	0.9922643
412	0.9928182
413	0.9933503
414	0.9938606
415	0.9943492
416	0.9948162
417	0.9952619
418	0.9956862
419	0.9960894
420	0.9964716
421	0.996833
422	0.9971737
423	0.997494
424	0.9977939
425	0.9980738
426	0.9983321
427	0.9985711
428	0.9987907
429	0.9989913
430	0.999173
431	0.999336
432	0.9994806
433	0.9996069
434	0.9997152
435	0.9998058
436	0.9998791
437	0.999935
438	0.9999735
439	0.9999949
440	0.9999996
441	0.9999879
442	0.9999602
443	0.9999169
444	0.999858
445	0.9997839
446	0.9996942
447	0.9995896
448	0.9994703
449	0.9993366
450	0.9991887
451	0.9990269
452	0.9988513
453	0.9986623
454	0.9984601
455	0.998245
456	0.9980172
457	0.9977769
458	0.9975244
459	0.99726
460	0.9969838
461	0.9966977
462	0.9964005
463	0.9960924
464	0.9957736
465	0.9954444
466	0.9951032
467	0.9947519
468	0.9943909
469	0.9940202
470	0.9936402
471	0.9932531
472	0.9928571
473	0.9924524
474	0.9920394
475	0.9916182
476	0.9911891
477	0.9907521
478	0.9903077
479	0.9898558
480	0.9893969
481	0.9889309
482	0.9884583
483	0.9879791
484	0.9874936
485	0.9870019
486	0.9865042
487	0.9860008
488	0.9854918
489	0.9849774
490	0.9844578
491	0.9839331
492	0.9834035
493	0.9828693
494	0.9823306
495	0.9817875
496	0.9812402
497	0.9806889
498	0.9801337
499	0.9795748
500	0.9790124
501	0.9784488
502	0.977882
503	0.9773121
504	0.9767392
505	0.9761634
506	0.9755828
507	0.9749997
508	0.9744141
509	0.9738264
510	0.9732365
511	0.9726446
512	0.9720509
513	0.9714554
514	0.9708583
515	0.9702598
516	0.9696618
517	0.9690625
518	0.9684621
519	0.9678605
520	0.967258
521	0.9666528
522	0.9660469
523	0.9654403
524	0.9648333
525	0.9642259
526	0.9636198
527	0.9630135
528	0.9624069
529	0.9618003
530	0.9611937
531	0.9605872
532	0.9599808
533	0.9593746
534	0.9587688
535	0.9581634
536	0.9575572
537	0.9569515
538	0.9563466
539	0.9557425
540	0.9551392
541	0.954538
542	0.9539377
543	0.9533384
544	0.9527401
545	0.9521429
546	0.9515469
547	0.9509521
548	0.9503585
549	0.9497664
550	0.9491755
551	0.9485862
552	0.9479983
553	0.947412
554	0.9468273
555	0.9462442
556	0.9456628
557	0.9450832
558	0.9445053
559	0.9439293
560	0.9433551
561	0.9427828
562	0.9422125
563	0.9416441
564	0.9410778
565	0.9405135
566	0.9399513
567	0.9393913
568	0.9388334
569	0.9382776
570	0.9377242
571	0.9371729
572	0.936624
573	0.9360773
574	0.935533
575	0.934991
576	0.9344515
577	0.9339143
578	0.9333796
579	0.9328473
580	0.9323175
581	0.9317895
582	0.931264
583	0.9307409
584	0.9302203
585	0.9297022
586	0.9291874
587	0.9286753
588	0.9281657
589	0.9276588
590	0.9271546
591	0.926653
592	0.9261541
593	0.9256579
594	0.9251644
595	0.9246735
596	0.9241855
597	0.9237001
598	0.9232175
599	0.9227377
600	0.9222606
601	0.9217847
602	0.9213114
603	0.9208409
604	0.9203731
605	0.9199079
606	0.9194473
607	0.9189895
608	0.9185345
609	0.9180822
610	0.9176328
611	0.9171842
612	0.9167383
613	0.9162952
614	0.9158547
615	0.915417
616	0.9149843
617	0.9145545
618	0.9141274
619	0.9137032
620	0.9132818
621	0.9128632
622	0.9124474
623	0.9120345
624	0.9116244
625	0.9112171
626	0.9108099
627	0.9104054
628	0.9100037
629	0.9096047
630	0.9092084
631	0.9088148
632	0.9084239
633	0.9080357
634	0.9076503
635	0.9072675
636	0.9068905
637	0.9065163
638	0.9061449
639	0.9057762
640	0.9054103
641	0.9050438
642	0.90468
643	0.9043188
644	0.9039602
645	0.9036043
646	0.9032546
647	0.9029076
648	0.9025632
649	0.9022216
650	0.9018827
651	0.9015427
652	0.9012053
653	0.9008704
654	0.9005382
655	0.9002085
656	0.8998814
657	0.8995568
658	0.8992348
659	0.8989153
660	0.8985983
661	0.898288
662	0.8979803
663	0.8976751
664	0.8973725
665	0.8970724
666	0.8967707
667	0.8964713
668	0.8961744
669	0.89588
670	0.895588
671	0.8952985
672	0.8950113
673	0.8947266
674	0.8944442
675	0.8941643
676	0.8938867
677	0.8936115
678	0.8933387
679	0.8930682
680	0.8928001
681	0.8925391
682	0.8922805
683	0.8920243
684	0.8917704
685	0.8915189
686	0.8912648
687	0.8910129
688	0.8907633
689	0.8905159
690	0.8902708
691	0.8900279
692	0.8897873
693	0.8895488
694	0.8893125
695	0.8890784
696	0.8888465
697	0.8886168
698	0.8883893
699	0.8881638
700	0.8879405
701	0.8877194
702	0.8875003
703	0.8872834
704	0.8870685
705	0.8868558
706	0.8866451
707	0.8864364
708	0.8862299
709	0.8860253
710	0.8858228
711	0.8856224
712	0.8854239
713	0.8852274
714	0.885033
715	0.8848405
716	0.88465
717	0.8844614
718	0.8842748
719	0.8840901
720	0.8839074
721	0.8837296
722	0.8835537
723	0.8833798
724	0.8832077
725	0.8830376
726	0.8828694
727	0.882703
728	0.8825386
729	0.882376
730	0.8822152
731	0.8820532
732	0.8818929
733	0.8817344
734	0.8815777
735	0.8814228
736	0.8812697
737	0.8811183
738	0.8809687
739	0.8808208
740	0.8806746
741	0.8805302
742	0.8803874
743	0.8802464
744	0.880107
745	0.8799693
746	0.8798333
747	0.879699
748	0.8795663
749	0.8794352
750	0.8793058
751	0.8791779
752	0.8790517
753	0.8789271
754	0.8788041
755	0.8786827
756	0.8785628
757	0.8784446
758	0.8783278
759	0.8782126
760	0.878099
761	0.8779834
762	0.8778692
763	0.8777566
764	0.8776454
765	0.8775357
766	0.8774275
767	0.8773207
768	0.8772154
769	0.8771115
770	0.877009
771	0.8769116
772	0.8768156
773	0.876721
774	0.8766278
775	0.876536
776	0.8764456
777	0.8763566
778	0.876269
779	0.8761827
780	0.8760979
781	0.8760143
782	0.8759321
783	0.8758513
784	0.8757717
785	0.8756935
786	0.8756166
787	0.875541
788	0.8754667
789	0.8753937
790	0.8753219
791	0.8752515
792	0.8751822
793	0.8751143
794	0.8750476
795	0.8749821
796	0.8749179
797	0.8748548
798	0.874793
799	0.8747324
800	0.874673
801	0.8746148
802	0.8745578
803	0.8745019
804	0.8744473
805	0.8743937
806	0.8743414
807	0.8742902
808	0.8742401
809	0.8741911
810	0.8741433
811	0.8740926
812	0.8740431
813	0.8739946
814	0.8739472
815	0.8739009
816	0.8738557
817	0.8738115
818	0.8737684
819	0.8737263
820	0.8736852
821	0.8736492
822	0.8736142
823	0.8735803
824	0.8735474
825	0.8735155
826	0.8734846
827	0.8734548
828	0.8734259
829	0.873398
830	0.8733711
831	0.8733411
832	0.8733121
833	0.873284
834	0.8732569
835	0.8732307
836	0.8732054
837	0.8731811
838	0.8731577
839	0.8731352
840	0.8731136
841	0.8730971
842	0.8730815
843	0.8730668
844	0.8730529
845	0.87304
846	0.8730279
847	0.8730168
848	0.8730064
849	0.872997
850	0.8729884
851	0.8729807
852	0.8729738
853	0.8729678
854	0.8729626
855	0.8729583
856	0.8729547
857	0.872952
858	0.8729501
859	0.872949
860	0.8729487
861	0.872945
862	0.8729421
863	0.8729399
864	0.8729385
865	0.8729379
866	0.872938
867	0.8729389
868	0.8729405
869	0.8729429
870	0.8729461
871	0.8729542
872	0.8729631
873	0.8729727
874	0.8729831
875	0.8729941
876	0.8730059
877	0.8730184
878	0.8730316
879	0.8730456
880	0.8730602
881	0.8730712
882	0.8730828
883	0.8730951
884	0.8731082
885	0.8731218
886	0.8731362
887	0.8731512
888	0.8731668
889	0.8731831
890	0.8732
891	0.8732176
892	0.8732358
893	0.8732546
894	0.8732741
895	0.8732942
896	0.8733149
897	0.8733362
898	0.8733581
899	0.8733806
900	0.8734037
901	0.8734318
902	0.8734605
903	0.8734898
904	0.8735197
905	0.8735502
906	0.8735812
907	0.8736129
908	0.873645
909	0.8736778
910	0.8737111
911	0.8737406
912	0.8737706
913	0.8738011
914	0.8738322
915	0.8738638
916	0.8738959
917	0.8739286
918	0.8739618
919	0.8739955
920	0.8740298
921	0.874069
922	0.8741087
923	0.8741489
924	0.8741897
925	0.8742309
926	0.8742726
927	0.8743149
928	0.8743576
929	0.8744008
930	0.8744445
931	0.8744842
932	0.8745243
933	0.874565
934	0.8746061
935	0.8746476
936	0.8746896
937	0.8747321
938	0.874775
939	0.8748184
940	0.8748622
941	0.8749065
942	0.8749512
943	0.8749963
944	0.8750418
945	0.8750878
946	0.8751342
947	0.8751811
948	0.8752283
949	0.875276
950	0.875324
951	0.875377
952	0.8754304
953	0.8754842
954	0.8755384
955	0.875593
956	0.875648
957	0.8757034
958	0.8757592
959	0.8758154
960	0.8758719
961	0.8759243
962	0.8759771
963	0.8760302
964	0.8760838
965	0.8761376
966	0.8761919
967	0.8762465
968	0.8763014
969	0.8763567
970	0.8764124
971	0.8764684
972	0.8765247
973	0.8765814
974	0.8766384
975	0.8766958
976	0.8767535
977	0.8768115
978	0.8768699
979	0.8769286
980	0.8769876
981	0.8770515
982	0.8771157
983	0.8771802
984	0.877245
985	0.8773102
986	0.8773756
987	0.8774414
988	0.8775074
989	0.8775738
990	0.8776405
991	0.8777029
992	0.8777655
993	0.8778285
994	0.8778918
995	0.8779553
996	0.8780192
997	0.8780833
998	0.8781477
999	0.8782123
1000	0.8782773
1001	0.8783425
1002	0.878408
1003	0.8784737
1004	0.8785397
1005	0.878606
1006	0.8786725
1007	0.8787393
1008	0.8788063
1009	0.8788736
1010	0.8789412
1011	0.879009
1012	0.879077
1013	0.8791453
1014	0.8792138
1015	0.8792825
1016	0.8793515
1017	0.8794208
1018	0.8794902
1019	0.8795599
1020	0.8796298
1021	0.8797046
1022	0.8797795
1023	0.8798547
1024	0.8799301
1025	0.8800057
1026	0.8800815
1027	0.8801575
1028	0.8802338
1029	0.8803102
1030	0.8803869
1031	0.8804592
1032	0.8805317
1033	0.8806044
1034	0.8806773
1035	0.8807504
1036	0.8808238
1037	0.8808972
1038	0.8809709
1039	0.8810448
1040	0.8811189
1041	0.8811932
1042	0.8812676
1043	0.8813423
1044	0.8814171
1045	0.8814921
1046	0.8815672
1047	0.8816426
1048	0.8817181
1049	0.8817938
1050	0.8818697
1051	0.8819457
1052	0.882022
1053	0.8820983
1054	0.8821749
1055	0.8822516
1056	0.8823285
1057	0.8824055
1058	0.8824827
1059	0.88256
1060	0.8826375
1061	0.8827152
1062	0.882793
1063	0.8828709
1064	0.882949
1065	0.8830273
1066	0.8831057
1067	0.8831842
1068	0.8832629
1069	0.8833417
1070	0.8834207
1071	0.8835044
1072	0.8835882
1073	0.8836721
1074	0.8837561
1075	0.8838403
1076	0.8839246
1077	0.8840091
1078	0.8840937
1079	0.8841784
1080	0.8842632
1081	0.8843436
1082	0.8844241
1083	0.8845047
1084	0.8845855
1085	0.8846664
1086	0.8847474
1087	0.8848285
1088	0.8849097
1089	0.884991
1090	0.8850725
1091	0.885154
1092	0.8852357
1093	0.8853175
1094	0.8853993
1095	0.8854813
1096	0.8855634
1097	0.8856456
1098	0.8857279
1099	0.8858103
1100	0.8858928
1101	0.8859753
1102	0.886058
1103	0.8861408
1104	0.8862237
1105	0.8863066
1106	0.8863897
1107	0.8864728
1108	0.886556
1109	0.8866394
1110	0.8867228
1111	0.8868063
1112	0.8868898
1113	0.8869735
1114	0.8870572
1115	0.887141
1116	0.8872249
1117	0.8873089
1118	0.887393
1119	0.8874771
1120	0.8875613
1121	0.8876456
1122	0.8877299
1123	0.8878143
1124	0.8878988
1125	0.8879834
1126	0.888068
1127	0.8881527
1128	0.8882375
1129	0.8883223
1130	0.8884072
1131	0.8884967
1132	0.8885862
1133	0.8886757
1134	0.8887654
1135	0.888855
1136	0.8889448
1137	0.8890346
1138	0.8891244
1139	0.8892143
1140	0.8893042
1141	0.8893898
1142	0.8894753
1143	0.889561
1144	0.8896466
1145	0.8897324
1146	0.8898181
1147	0.889904
1148	0.8899898
1149	0.8900758
1150	0.8901617
1151	0.8902477
1152	0.8903338
1153	0.8904199
1154	0.890506
1155	0.8905922
1156	0.8906784
1157	0.8907647
1158	0.8908509
1159	0.8909373
1160	0.8910236
1161	0.89111
1162	0.8911965
1163	0.891283
1164	0.8913695
1165	0.891456
1166	0.8915426
1167	0.8916292
1168	0.8917158
1169	0.8918025
1170	0.8918891
1171	0.8919759
1172	0.8920626
1173	0.8921494
1174	0.8922362
1175	0.892323
1176	0.8924098
1177	0.8924967
1178	0.8925836
1179	0.8926705
1180	0.8927574
1181	0.8928444
1182	0.8929313
1183	0.8930183
1184	0.8931053
1185	0.8931924
1186	0.8932794
1187	0.8933664
1188	0.8934535
1189	0.8935406
1190	0.8936277
1191	0.8937148
1192	0.8938019
1193	0.8938891
1194	0.8939762
1195	0.8940634
1196	0.8941505
1197	0.8942377
1198	0.8943249
1199	0.8944121
1200	0.8944993
1201	0.8945909
1202	0.8946825
1203	0.894774
1204	0.8948656
1205	0.8949572
1206	0.8950488
1207	0.8951403
1208	0.8952319
1209	0.8953235
1210	0.895415
1211	0.8955023
1212	0.8955895
1213	0.8956767
1214	0.8957639
1215	0.8958511
1216	0.8959383
1217	0.8960255
1218	0.8961127
1219	0.8962
1220	0.8962871
1221	0.8963743
1222	0.8964615
1223	0.8965487
1224	0.8966359
1225	0.896723
1226	0.8968102
1227	0.8968973
1228	0.8969845
1229	0.8970716
1230	0.8971587
1231	0.8972458
1232	0.8973329
1233	0.89742
1234	0.8975071
1235	0.8975941
1236	0.8976812
1237	0.8977682
1238	0.8978552
1239	0.8979422
1240	0.8980292
1241	0.8981162
1242	0.8982031
1243	0.8982901
1244	0.898377
1245	0.8984639
1246	0.8985508
1247	0.8986377
1248	0.8987245
1249	0.8988114
1250	0.8988982
1251	0.898985
1252	0.8990717
1253	0.8991585
1254	0.8992452
1255	0.8993319
1256	0.8994186
1257	0.8995052
1258	0.8995919
1259	0.8996785
1260	0.8997651
1261	0.8998516
1262	0.8999382
1263	0.9000247
1264	0.9001112
1265	0.9001977
1266	0.9002841
1267	0.9003705
1268	0.9004569
1269	0.9005432
1270	0.9006296
1271	0.9007201
1272	0.9008105
1273	0.900901
1274	0.9009914
1275	0.9010818
1276	0.9011721
1277	0.9012624
1278	0.9013527
1279	0.9014429
1280	0.9015331
1281	0.9016191
1282	0.901705
1283	0.901791
1284	0.9018768
1285	0.9019626
1286	0.9020485
1287	0.9021342
1288	0.90222
1289	0.9023056
1290	0.9023913
1291	0.9024769
1292	0.9025625
1293	0.9026481
1294	0.9027336
1295	0.9028191
1296	0.9029045
1297	0.9029899
1298	0.9030753
1299	0.9031606
1300	0.9032459
1301	0.9033312
1302	0.9034164
1303	0.9035016
1304	0.9035867
1305	0.9036718
1306	0.9037568
1307	0.9038419
1308	0.9039268
1309	0.9040118
1310	0.9040967
1311	0.9041815
1312	0.9042663
1313	0.9043511
1314	0.9044358
1315	0.9045205
1316	0.9046051
1317	0.9046897
1318	0.9047743
1319	0.9048588
1320	0.9049432
1321	0.9050276
1322	0.905112
1323	0.9051963
1324	0.9052806
1325	0.9053648
1326	0.905449
1327	0.9055332
1328	0.9056173
1329	0.9057013
1330	0.9057853
1331	0.9058693
1332	0.9059532
1333	0.9060371
1334	0.9061209
1335	0.9062046
1336	0.9062884
1337	0.906372
1338	0.9064557
1339	0.9065392
1340	0.9066227
1341	0.9067062
1342	0.9067897
1343	0.906873
1344	0.9069564
1345	0.9070396
1346	0.9071229
1347	0.907206
1348	0.9072892
1349	0.9073722
1350	0.9074553
1351	0.9075422
1352	0.9076292
1353	0.9077161
1354	0.9078029
1355	0.9078897
1356	0.9079764
1357	0.908063
1358	0.9081496
1359	0.9082362
1360	0.9083226
1361	0.9084051
1362	0.9084874
1363	0.9085697
1364	0.908652
1365	0.9087342
1366	0.9088164
1367	0.9088985
1368	0.9089805
1369	0.9090625
1370	0.9091444
1371	0.9092263
1372	0.9093081
1373	0.9093899
1374	0.9094716
1375	0.9095533
1376	0.9096349
1377	0.9097164
1378	0.9097979
1379	0.9098793
1380	0.9099607
1381	0.910042
1382	0.9101233
1383	0.9102045
1384	0.9102857
1385	0.9103667
1386	0.9104478
1387	0.9105288
1388	0.9106097
1389	0.9106905
1390	0.9107713
1391	0.9108521
1392	0.9109328
1393	0.9110134
1394	0.911094
1395	0.9111745
1396	0.9112549
1397	0.9113353
1398	0.9114157
1399	0.9114959
1400	0.9115762
1401	0.9116563
1402	0.9117364
1403	0.9118165
1404	0.9118964
1405	0.9119763
1406	0.9120562
1407	0.912136
1408	0.9122157
1409	0.9122954
1410	0.912375
1411	0.9124585
1412	0.9125418
1413	0.9126251
1414	0.9127084
1415	0.9127915
1416	0.9128746
1417	0.9129576
1418	0.9130406
1419	0.9131235
1420	0.9132063
1421	0.9132853
1422	0.9133641
1423	0.9134429
1424	0.9135216
1425	0.9136003
1426	0.9136789
1427	0.9137575
1428	0.913836
1429	0.9139144
1430	0.9139927
1431	0.914071
1432	0.9141493
1433	0.9142274
1434	0.9143055
1435	0.9143836
1436	0.9144616
1437	0.9145395
1438	0.9146173
1439	0.9146951
1440	0.9147729
1441	0.9148505
1442	0.9149281
1443	0.9150057
1444	0.9150831
1445	0.9151605
1446	0.9152379
1447	0.9153152
1448	0.9153924
1449	0.9154695
1450	0.9155466
1451	0.9156237
1452	0.9157006
1453	0.9157775
1454	0.9158544
1455	0.9159311
1456	0.9160078
1457	0.9160845
1458	0.916161
1459	0.9162375
1460	0.916314
1461	0.9163904
1462	0.9164667
1463	0.9165429
1464	0.9166191
1465	0.9166952
1466	0.9167713
1467	0.9168473
1468	0.9169232
1469	0.9169991
1470	0.9170749
1471	0.9171506
1472	0.9172262
1473	0.9173018
1474	0.9173774
1475	0.9174528
1476	0.9175282
1477	0.9176036
1478	0.9176788
1479	0.917754
1480	0.9178292
1481	0.9179079
1482	0.9179866
1483	0.9180653
1484	0.9181438
1485	0.9182223
1486	0.9183007
1487	0.918379
1488	0.9184573
1489	0.9185355
1490	0.9186136
1491	0.918688
1492	0.9187623
1493	0.9188366
1494	0.9189107
1495	0.9189849
1496	0.9190589
1497	0.9191329
1498	0.9192068
1499	0.9192807
1500	0.9193544
1501	0.9194282
1502	0.9195018
1503	0.9195754
1504	0.9196489
1505	0.9197224
1506	0.9197958
