Wavelength (nm)	Transmittance
200	0.0588147
201	0.0596328
202	0.0604532
203	0.0612759
204	0.0621008
205	0.0629279
206	0.063757
207	0.064183
208	0.0638906
209	0.0635592
210	0.0632058
211	0.0628755
212	0.062555
213	0.0622876
214	0.0620623
215	0.0619709
216	0.0618841
217	0.0618054
218	0.0616463
219	0.0614018
220	0.0611704
221	0.0609493
222	0.0608371
223	0.0607958
224	0.0607341
225	0.0606586
226	0.0604557
227	0.0601591
228	0.0598446
229	0.0595126
230	0.059236
231	0.0590392
232	0.0588399
233	0.0586312
234	0.0584136
235	0.0580656
236	0.0577209
237	0.0573542
238	0.0569865
239	0.0566576
240	0.056358
241	0.0560567
242	0.0557454
243	0.0554369
244	0.0551105
245	0.0547848
246	0.0544158
247	0.054001
248	0.0535844
249	0.0529575
250	0.0523409
251	0.0517342
252	0.0511374
253	0.05055
254	0.0501337
255	0.0497274
256	0.0493584
257	0.0490506
258	0.0487457
259	0.0484989
260	0.0482775
261	0.0480573
262	0.0478666
263	0.0476773
264	0.0474742
265	0.0472138
266	0.0469555
267	0.0467137
268	0.0464982
269	0.046284
270	0.0461168
271	0.0460014
272	0.0458861
273	0.0457976
274	0.0457347
275	0.0456713
276	0.0456077
277	0.0455441
278	0.04548
279	0.0454328
280	0.0454131
281	0.0453927
282	0.0453886
283	0.0454445
284	0.045499
285	0.0455523
286	0.045658
287	0.0457635
288	0.0458675
289	0.0459765
290	0.0460876
291	0.0461973
292	0.0463223
293	0.0464908
294	0.046658
295	0.0468239
296	0.0470736
297	0.0473434
298	0.0476122
299	0.0478969
300	0.0482349
301	0.0485722
302	0.0489088
303	0.0492752
304	0.0496617
305	0.0500479
306	0.0504341
307	0.0508705
308	0.0513156
309	0.0517612
310	0.0522086
311	0.0526894
312	0.0531709
313	0.0536533
314	0.0541448
315	0.0547056
316	0.0552683
317	0.0558328
318	0.0564128
319	0.0571348
320	0.0578614
321	0.0585926
322	0.0593285
323	0.0600993
324	0.0608768
325	0.0616596
326	0.0624479
327	0.0631906
328	0.0639178
329	0.0646494
330	0.0653852
331	0.0661156
332	0.0668339
333	0.0675561
334	0.0682822
335	0.0690124
336	0.0697519
337	0.0704963
338	0.0712448
339	0.0719974
340	0.0727358
341	0.0734366
342	0.0741408
343	0.0748483
344	0.0755591
345	0.0761938
346	0.0767774
347	0.0773626
348	0.0779495
349	0.078538
350	0.0790711
351	0.0795862
352	0.0801022
353	0.0806192
354	0.0811371
355	0.0816243
356	0.0821021
357	0.0825804
358	0.0830594
359	0.0835389
360	0.0839528
361	0.0843263
362	0.0846998
363	0.0850733
364	0.0854468
365	0.0857396
366	0.0858753
367	0.0860106
368	0.0861455
369	0.08628
370	0.0864141
371	0.0865216
372	0.0866255
373	0.0867291
374	0.0868323
375	0.0869351
376	0.0870781
377	0.0873198
378	0.0875611
379	0.0878021
380	0.0880427
381	0.0882829
382	0.0885542
383	0.0888552
384	0.089156
385	0.0894565
386	0.0897568
387	0.0900568
388	0.0903654
389	0.0906809
390	0.0909961
391	0.0913109
392	0.0916254
393	0.0919395
394	0.0922795
395	0.0926585
396	0.0930373
397	0.0934161
398	0.0937946
399	0.094173
400	0.0945565
401	0.0950402
402	0.0955242
403	0.0960087
404	0.0964937
405	0.0969791
406	0.0974649
407	0.0979899
408	0.098556
409	0.0991231
410	0.099691
411	0.1002599
412	0.1008296
413	0.1014002
414	0.1020171
415	0.1026528
416	0.1032896
417	0.1039277
418	0.1045669
419	0.1052073
420	0.105849
421	0.1065628
422	0.1073078
423	0.1080549
424	0.1088041
425	0.1095555
426	0.1103091
427	0.1110648
428	0.1118752
429	0.1127507
430	0.1136297
431	0.1145124
432	0.1153987
433	0.1162887
434	0.1171823
435	0.1180794
436	0.1191443
437	0.1202224
438	0.1213069
439	0.1223978
440	0.1234951
441	0.124599
442	0.1257093
443	0.1268863
444	0.1283142
445	0.129755
446	0.1312088
447	0.1326757
448	0.1341557
449	0.1356491
450	0.1371557
451	0.1386936
452	0.1403562
453	0.1420359
454	0.1437329
455	0.1454474
456	0.1471796
457	0.1489295
458	0.1506975
459	0.1524835
460	0.1542994
461	0.156137
462	0.1579936
463	0.1598693
464	0.1617644
465	0.1636791
466	0.1656134
467	0.1675676
468	0.1695341
469	0.1714694
470	0.1734265
471	0.1754054
472	0.1774066
473	0.1794302
474	0.1814767
475	0.1835462
476	0.185639
477	0.1877676
478	0.1900051
479	0.1922758
480	0.1945801
481	0.1969189
482	0.1992928
483	0.2017026
484	0.2041491
485	0.2066331
486	0.2091554
487	0.2111386
488	0.2129885
489	0.2148678
490	0.2167771
491	0.2187171
492	0.2206885
493	0.2226921
494	0.2247286
495	0.2267989
496	0.2287965
497	0.2291374
498	0.2294907
499	0.2298561
500	0.2302336
501	0.230623
502	0.2310241
503	0.2314367
504	0.2318606
505	0.2322956
506	0.2327415
507	0.2320731
508	0.2313367
509	0.2306032
510	0.2298721
511	0.2291428
512	0.2284148
513	0.2276873
514	0.2269599
515	0.226232
516	0.225503
517	0.2242757
518	0.2223057
519	0.2203393
520	0.2183762
521	0.2164161
522	0.214459
523	0.2125045
524	0.2105527
525	0.2086031
526	0.206656
527	0.2047111
528	0.2026335
529	0.2003615
530	0.1981003
531	0.19585
532	0.1936107
533	0.1913826
534	0.1891658
535	0.1869605
536	0.1847669
537	0.1825851
538	0.1804154
539	0.178258
540	0.1762816
541	0.1743327
542	0.1723986
543	0.1704793
544	0.168575
545	0.1666857
546	0.1648114
547	0.1629522
548	0.1611082
549	0.1592794
550	0.1574658
551	0.1556676
552	0.1544235
553	0.1532156
554	0.1520153
555	0.1508226
556	0.1496375
557	0.1484599
558	0.14729
559	0.1461277
560	0.1449729
561	0.1438257
562	0.1426861
563	0.1415541
564	0.1409308
565	0.1409735
566	0.1410154
567	0.1410564
568	0.1410967
569	0.1411361
570	0.1411747
571	0.1412125
572	0.1412494
573	0.1412855
574	0.1413208
575	0.1413554
576	0.1413891
577	0.1415372
578	0.14193
579	0.1423228
580	0.1427156
581	0.1431083
582	0.143501
583	0.1438937
584	0.1442863
585	0.1446789
586	0.1450714
587	0.1454639
588	0.1458563
589	0.1462487
590	0.1466411
591	0.1469033
592	0.1470746
593	0.1472453
594	0.1474153
595	0.1475847
596	0.1477535
597	0.1479216
598	0.148089
599	0.1482559
600	0.1484221
601	0.1485877
602	0.1487526
603	0.1489169
604	0.1490806
605	0.1492409
606	0.149389
607	0.1495364
608	0.1496832
609	0.1498294
610	0.1499749
611	0.1501199
612	0.1502642
613	0.1504078
614	0.1505509
615	0.1506933
616	0.1508352
617	0.1509764
618	0.1511169
619	0.1512569
620	0.151423
621	0.1519452
622	0.1524677
623	0.1529906
624	0.1535139
625	0.1540376
626	0.1545617
627	0.1550861
628	0.155611
629	0.1561362
630	0.1566617
631	0.1571877
632	0.157714
633	0.1582407
634	0.1587678
635	0.1592952
636	0.1596867
637	0.1594572
638	0.1592278
639	0.1589986
640	0.1587696
641	0.1585407
642	0.1583119
643	0.1580833
644	0.1578549
645	0.1576266
646	0.1573985
647	0.1571705
648	0.1569427
649	0.1567151
650	0.1564875
651	0.1562602
652	0.1560331
653	0.154875
654	0.1526042
655	0.1503678
656	0.1481655
657	0.1459967
658	0.1438611
659	0.1417583
660	0.1396878
661	0.1376491
662	0.1356419
663	0.1336657
664	0.1317201
665	0.1298047
666	0.127919
667	0.1260626
668	0.1242352
669	0.1224363
670	0.1206655
671	0.1186763
672	0.1166657
673	0.1146919
674	0.1127541
675	0.1108518
676	0.1089844
677	0.1071512
678	0.1053515
679	0.103585
680	0.1018508
681	0.1001485
682	0.0984774
683	0.0968371
684	0.0952269
685	0.0936463
686	0.0920948
687	0.0905717
688	0.0890767
689	0.087687
690	0.086649
691	0.0856251
692	0.0846153
693	0.0836193
694	0.0826369
695	0.0816678
696	0.080712
697	0.0797692
698	0.0788392
699	0.0779218
700	0.0770169
701	0.0761243
702	0.0752438
703	0.0743752
704	0.0735183
705	0.072673
706	0.0718391
707	0.0710165
708	0.070205
709	0.0694658
710	0.0687942
711	0.0681305
712	0.0674745
713	0.0668261
714	0.0661853
715	0.0655518
716	0.0649257
717	0.0643068
718	0.0636951
719	0.0630904
720	0.0624927
721	0.0619019
722	0.0613178
723	0.0607404
724	0.0601697
725	0.0596054
726	0.0590476
727	0.0584962
728	0.057951
729	0.057412
730	0.0569358
731	0.056491
732	0.0560505
733	0.0556143
734	0.0551823
735	0.0547546
736	0.054331
737	0.0539116
738	0.0534962
739	0.0530849
740	0.0526775
741	0.052274
742	0.0518745
743	0.0514788
744	0.0510869
745	0.0506987
746	0.0503143
747	0.0499336
748	0.0495565
749	0.049183
750	0.048813
751	0.0484466
752	0.0481057
753	0.0477845
754	0.047466
755	0.0471502
756	0.0468371
757	0.0465267
758	0.046219
759	0.0459138
760	0.0456113
761	0.0453113
762	0.0450139
763	0.044719
764	0.0444266
765	0.0441367
766	0.0438492
767	0.0435641
768	0.0432814
769	0.0430011
770	0.0427231
771	0.0424475
772	0.0421741
773	0.041903
774	0.0416342
775	0.0413677
776	0.041104
777	0.0408425
778	0.0405831
779	0.0403258
780	0.0400707
781	0.0398177
782	0.0395667
783	0.0393178
784	0.0390709
785	0.038826
786	0.0385831
787	0.0383422
788	0.0381033
789	0.0378662
790	0.0376311
791	0.0373979
792	0.0371666
793	0.0369371
794	0.0367095
795	0.0364837
796	0.0362598
797	0.0360376
798	0.0358171
799	0.0355985
800	0.0353839
801	0.035192
802	0.0350015
803	0.0348123
804	0.0346246
805	0.0344381
806	0.034253
807	0.0340692
808	0.0338867
809	0.0337056
810	0.0335257
811	0.0333471
812	0.0331697
813	0.0329937
814	0.0328188
815	0.0326452
816	0.0324729
817	0.0323017
818	0.0321317
819	0.031963
820	0.0317954
821	0.031629
822	0.0314637
823	0.0312996
824	0.0311367
825	0.0309749
826	0.0308142
827	0.0306714
828	0.0305516
829	0.0304325
830	0.030314
831	0.0301962
832	0.030079
833	0.0299624
834	0.0298465
835	0.0297312
836	0.0296165
837	0.0295025
838	0.029389
839	0.0292762
840	0.029164
841	0.0290524
842	0.0289413
843	0.0288309
844	0.0287211
845	0.0286118
846	0.0285031
847	0.028395
848	0.0282875
849	0.0281805
850	0.0280741
851	0.0279683
852	0.0278631
853	0.0277583
854	0.0276542
855	0.0275506
856	0.0274543
857	0.0273591
858	0.0272644
859	0.0271701
860	0.0270763
861	0.0269829
862	0.02689
863	0.0267976
864	0.0267056
865	0.0266141
866	0.026523
867	0.0264323
868	0.0263421
869	0.0262523
870	0.0261629
871	0.026074
872	0.0259855
873	0.0258975
874	0.0258098
875	0.0257226
876	0.0256358
877	0.0255494
878	0.0254634
879	0.0253779
880	0.0252927
881	0.025208
882	0.0251236
883	0.0250397
884	0.0249562
885	0.024873
886	0.0247851
887	0.0246897
888	0.0245948
889	0.0245004
890	0.0244065
891	0.0243131
892	0.0242202
893	0.0241278
894	0.0240359
895	0.0239444
896	0.0238535
897	0.023763
898	0.0236731
899	0.0235836
900	0.0234945
901	0.023406
902	0.0233179
903	0.0232302
904	0.0231431
905	0.0230563
906	0.0229701
907	0.0228843
908	0.0227989
909	0.022714
910	0.0226295
911	0.0225454
912	0.0224618
913	0.0223787
914	0.0222959
915	0.0222136
916	0.0221317
917	0.0220502
918	0.0219692
919	0.021891
920	0.0218148
921	0.021739
922	0.0216636
923	0.0215886
924	0.0215139
925	0.0214396
926	0.0213657
927	0.0212921
928	0.0212188
929	0.021146
930	0.0210734
931	0.0210013
932	0.0209294
933	0.020858
934	0.0207868
935	0.020716
936	0.0206456
937	0.0205755
938	0.0205057
939	0.0204363
940	0.0203672
941	0.0202984
942	0.0202299
943	0.0201618
944	0.020094
945	0.0200265
946	0.0199594
947	0.0198925
948	0.019826
949	0.0197598
950	0.0196939
951	0.0196283
952	0.0195631
953	0.0194981
954	0.019438
955	0.0193904
956	0.0193429
957	0.0192957
958	0.0192486
959	0.0192017
960	0.0191549
961	0.0191083
962	0.0190619
963	0.0190156
964	0.0189695
965	0.0189236
966	0.0188778
967	0.0188322
968	0.0187868
969	0.0187415
970	0.0186964
971	0.0186514
972	0.0186066
973	0.0185619
974	0.0185175
975	0.0184731
976	0.0184289
977	0.0183849
978	0.018341
979	0.0182973
980	0.0182538
981	0.0182103
982	0.0181671
983	0.018124
984	0.018081
985	0.0180382
986	0.0179955
987	0.017953
988	0.0179107
989	0.0178685
990	0.0178264
991	0.0177845
992	0.0177423
993	0.0176974
994	0.0176526
995	0.017608
996	0.0175636
997	0.0175194
998	0.0174753
999	0.0174314
1000	0.0173876
1001	0.017344
1002	0.0173005
1003	0.0172572
1004	0.0172141
1005	0.0171711
1006	0.0171283
1007	0.0170857
1008	0.0170432
1009	0.0170008
1010	0.0169586
1011	0.0169166
1012	0.0168747
1013	0.0168329
1014	0.0167913
1015	0.0167499
1016	0.0167086
1017	0.0166675
1018	0.0166265
1019	0.0165856
1020	0.0165449
1021	0.0165044
1022	0.016464
1023	0.0164237
1024	0.0163836
1025	0.0163436
1026	0.0163038
1027	0.0162641
1028	0.0162245
1029	0.0161851
1030	0.0161459
1031	0.0161067
1032	0.0160677
1033	0.0160289
1034	0.015976
1035	0.0159196
1036	0.0158634
1037	0.0158076
1038	0.015752
1039	0.0156967
1040	0.0156417
1041	0.0155869
1042	0.0155324
1043	0.0154782
1044	0.0154242
1045	0.0153705
1046	0.015317
1047	0.0152638
1048	0.0152109
1049	0.0151582
1050	0.0151058
1051	0.0150536
1052	0.0150017
1053	0.01495
1054	0.0148986
1055	0.0148475
1056	0.0147965
1057	0.0147458
1058	0.0146954
1059	0.0146452
1060	0.0145952
1061	0.0145455
1062	0.014496
1063	0.0144468
1064	0.0143977
1065	0.014349
1066	0.0143004
1067	0.0142521
1068	0.014204
1069	0.0141561
1070	0.0141084
1071	0.014061
1072	0.0140138
1073	0.0139668
1074	0.0139201
1075	0.0138735
1076	0.0138272
1077	0.0137811
1078	0.0137352
1079	0.0136908
1080	0.0136468
1081	0.013603
1082	0.0135594
1083	0.013516
1084	0.0134728
1085	0.0134298
1086	0.013387
1087	0.0133444
1088	0.0133019
1089	0.0132597
1090	0.0132176
1091	0.0131758
1092	0.0131341
1093	0.0130926
1094	0.0130513
1095	0.0130101
1096	0.0129692
1097	0.0129284
1098	0.0128878
1099	0.0128474
1100	0.0128072
1101	0.0127671
1102	0.0127273
1103	0.0126876
1104	0.012648
1105	0.0126087
1106	0.0125695
1107	0.0125305
1108	0.0124917
1109	0.012453
1110	0.0124145
1111	0.0123761
1112	0.012338
1113	0.0123
1114	0.0122621
1115	0.0122245
1116	0.012187
1117	0.0121496
1118	0.0121124
1119	0.0120754
1120	0.0120385
1121	0.0120018
1122	0.0119653
1123	0.0119289
1124	0.0118927
1125	0.0118566
1126	0.0118207
1127	0.0117849
1128	0.0117509
1129	0.0117172
1130	0.0116837
1131	0.0116504
1132	0.0116172
1133	0.0115841
1134	0.0115512
1135	0.0115183
1136	0.0114857
1137	0.0114531
1138	0.0114207
1139	0.0113884
1140	0.0113562
1141	0.0113242
1142	0.0112923
1143	0.0112605
1144	0.0112289
1145	0.0111974
1146	0.011166
1147	0.0111347
1148	0.0111036
1149	0.0110726
1150	0.0110417
1151	0.0110109
1152	0.0109803
1153	0.0109497
1154	0.0109193
1155	0.010889
1156	0.0108589
1157	0.0108288
1158	0.0107989
1159	0.0107691
1160	0.0107394
1161	0.0107098
1162	0.0106804
1163	0.010651
1164	0.0106218
1165	0.0105927
1166	0.0105637
1167	0.0105348
1168	0.010506
1169	0.0104773
1170	0.0104488
1171	0.0104204
1172	0.010392
1173	0.0103638
1174	0.0103357
1175	0.0103077
1176	0.0102798
1177	0.010252
1178	0.0102243
1179	0.0101968
1180	0.0101693
1181	0.0101451
1182	0.0101343
1183	0.0101235
1184	0.0101128
1185	0.010102
1186	0.0100913
1187	0.0100806
1188	0.0100699
1189	0.0100592
1190	0.0100485
1191	0.0100379
1192	0.0100273
1193	0.0100166
1194	0.010006
1195	0.0099955
1196	0.0099849
1197	0.0099743
1198	0.0099638
1199	0.0099533
1200	0.0099427
1201	0.0099323
1202	0.0099218
1203	0.0099113
1204	0.0099009
1205	0.0098904
1206	0.00988
1207	0.0098696
1208	0.0098592
1209	0.0098488
1210	0.0098385
1211	0.0098281
1212	0.0098178
1213	0.0098075
1214	0.0097972
1215	0.0097869
1216	0.0097766
1217	0.0097664
1218	0.0097561
1219	0.0097459
1220	0.0097357
1221	0.0097255
1222	0.0097153
1223	0.0097051
1224	0.009695
1225	0.0096848
1226	0.0096747
1227	0.0096646
1228	0.0096545
1229	0.0096444
1230	0.0096344
1231	0.0096243
1232	0.0096143
1233	0.0096043
1234	0.0095942
1235	0.0095843
1236	0.0095743
1237	0.0095643
1238	0.0095544
1239	0.0095444
1240	0.0095399
1241	0.0095664
1242	0.0095928
1243	0.0096193
1244	0.0096458
1245	0.0096723
1246	0.0096989
1247	0.0097255
1248	0.0097522
1249	0.0097789
1250	0.0098056
1251	0.0098324
1252	0.0098591
1253	0.009886
1254	0.0099128
1255	0.0099397
1256	0.0099666
1257	0.0099936
1258	0.0100206
1259	0.0100476
1260	0.0100747
1261	0.0101018
1262	0.0101289
1263	0.0101561
1264	0.0101833
1265	0.0102105
1266	0.0102378
1267	0.0102651
1268	0.0102925
1269	0.0103198
1270	0.0103472
1271	0.0103747
1272	0.0104022
1273	0.0104297
1274	0.0104572
1275	0.0104848
1276	0.0105124
1277	0.01054
1278	0.0105677
1279	0.0105954
1280	0.0106232
1281	0.010651
1282	0.0106788
1283	0.0107066
1284	0.0107345
1285	0.0107624
1286	0.0107904
1287	0.0108184
1288	0.0108464
1289	0.0108744
1290	0.0109025
1291	0.0109306
1292	0.0109588
1293	0.010987
1294	0.0110152
1295	0.0110435
1296	0.0110717
1297	0.0111001
1298	0.0111284
1299	0.0111568
1300	0.0111852
1301	0.0112137
1302	0.0112422
1303	0.0112707
1304	0.0112992
1305	0.0113278
1306	0.0113543
1307	0.0113805
1308	0.0114068
1309	0.011433
1310	0.0114593
1311	0.0114857
1312	0.011512
1313	0.0115384
1314	0.0115647
1315	0.0115912
1316	0.0116176
1317	0.011644
1318	0.0116705
1319	0.011697
1320	0.0117236
1321	0.0117501
1322	0.0117767
1323	0.0118033
1324	0.0118299
1325	0.0118565
1326	0.0118832
1327	0.0119099
1328	0.0119366
1329	0.0119633
1330	0.0119901
1331	0.0120169
1332	0.0120437
1333	0.0120705
1334	0.0120973
1335	0.0121242
1336	0.0121511
1337	0.012178
1338	0.0122049
1339	0.0122319
1340	0.0122589
1341	0.0122859
1342	0.0123129
1343	0.0123399
1344	0.012367
1345	0.0123941
1346	0.0124212
1347	0.0124484
1348	0.0124755
1349	0.0125027
1350	0.0125299
1351	0.0125571
1352	0.0125844
1353	0.0126116
1354	0.0126389
1355	0.0126662
1356	0.0126936
1357	0.0127209
1358	0.0127483
1359	0.0127757
1360	0.0128031
1361	0.0128306
1362	0.012858
1363	0.0128855
1364	0.012913
1365	0.0129406
1366	0.0129681
1367	0.0129957
1368	0.0130233
1369	0.0130509
1370	0.0130785
1371	0.0131062
1372	0.0131339
1373	0.0131616
1374	0.0131893
1375	0.013217
1376	0.0132448
1377	0.0132726
1378	0.0132853
1379	0.0132744
1380	0.0132635
1381	0.0132526
1382	0.0132417
1383	0.0132308
1384	0.01322
1385	0.0132091
1386	0.0131983
1387	0.0131875
1388	0.0131767
1389	0.0131659
1390	0.0131551
1391	0.0131443
1392	0.0131336
1393	0.0131228
1394	0.0131121
1395	0.0131014
1396	0.0130906
1397	0.0130799
1398	0.0130692
1399	0.0130586
1400	0.0130479
1401	0.0130372
1402	0.0130266
1403	0.0130159
1404	0.0130053
1405	0.0129947
1406	0.0129841
1407	0.0129735
1408	0.0129629
1409	0.0129524
1410	0.0129418
1411	0.0129313
1412	0.0129207
1413	0.0129102
1414	0.0128997
1415	0.0128892
1416	0.0128787
1417	0.0128682
1418	0.0128577
1419	0.0128473
1420	0.0128368
1421	0.0128264
1422	0.012816
1423	0.0128056
1424	0.0127952
1425	0.0127848
1426	0.0127744
1427	0.012764
1428	0.0127537
1429	0.0127433
1430	0.012733
1431	0.0127227
1432	0.0127124
1433	0.012702
1434	0.0126918
1435	0.0126815
1436	0.0126712
1437	0.0126609
1438	0.0126507
1439	0.0126405
1440	0.0126302
1441	0.01262
1442	0.0126098
1443	0.0125996
1444	0.0125894
1445	0.0125793
1446	0.0125691
1447	0.012559
1448	0.0125488
1449	0.0125387
1450	0.0125286
1451	0.0125185
1452	0.0125084
1453	0.0124983
1454	0.0124882
1455	0.0124781
1456	0.0124681
1457	0.0124581
1458	0.012448
1459	0.0124349
1460	0.0124162
1461	0.0123975
1462	0.0123788
1463	0.0123602
1464	0.0123416
1465	0.0123231
1466	0.0123046
1467	0.0122862
1468	0.0122678
1469	0.0122494
1470	0.0122311
1471	0.0122128
1472	0.0121945
1473	0.0121763
1474	0.0121582
1475	0.01214
1476	0.012122
1477	0.0121039
1478	0.0120859
1479	0.012068
1480	0.01205
1481	0.0120321
1482	0.0120143
1483	0.0119965
1484	0.0119787
1485	0.011961
1486	0.0119433
1487	0.0119257
1488	0.0119081
1489	0.0118905
1490	0.0118729
1491	0.0118555
1492	0.011838
1493	0.0118206
1494	0.0118032
1495	0.0117859
1496	0.0117686
1497	0.0117513
1498	0.0117341
1499	0.0117169
1500	0.0116997
1501	0.0116826
1502	0.0116655
1503	0.0116485
1504	0.0116315
1505	0.0116145
1506	0.0115976
1507	0.0115807
